timestamp;value
0-0-8-172000;1266 
0-0-8-175000;1310 
0-0-8-177000;1333 
0-0-8-179000;1352 
0-0-8-181000;1292 
0-0-8-183000;1275 
0-0-8-185000;1228 
0-0-8-187000;1211 
0-0-8-189000;1210 
0-0-8-191000;1245 
0-0-8-193000;1265 
0-0-8-195000;1299 
0-0-8-197000;1351 
0-0-8-199000;1330 
0-0-8-201000;1317 
0-0-8-203000;1265 
0-0-8-205000;1199 
0-0-8-207000;1213 
0-0-8-209000;1215 
0-0-8-211000;1249 
0-0-8-213000;1275 
0-0-8-215000;1301 
0-0-8-217000;1352 
0-0-8-219000;1320 
0-0-8-221000;1310 
0-0-8-223000;1280 
0-0-8-225000;1226 
0-0-8-227000;1210 
0-0-8-229000;1231 
0-0-8-231000;1237 
0-0-8-233000;1271 
0-0-8-235000;1310 
0-0-8-237000;1342 
0-0-8-239000;1365 
0-0-8-241000;1280 
0-0-8-244000;1271 
0-0-8-246000;1217 
0-0-8-248000;1232 
0-0-8-249000;1249 
0-0-8-251000;1234 
0-0-8-253000;1289 
0-0-8-255000;1299 
0-0-8-257000;1371 
0-0-8-259000;1327 
0-0-8-261000;1315 
0-0-8-263000;1258 
0-0-8-265000;1240 
0-0-8-267000;1213 
0-0-8-269000;1210 
0-0-8-271000;1244 
0-0-8-273000;11 
0-0-8-275000;80 
0-0-8-278000;101 
0-0-8-280000;89 
0-0-8-282000;58 
0-0-8-284000;24 
0-0-8-286000;-14 
0-0-8-288000;-30 
0-0-8-290000;-30 
0-0-8-291000;1 
0-0-8-293000;55 
0-0-8-295000;82 
0-0-8-297000;98 
0-0-8-299000;108 
0-0-8-301000;57 
0-0-8-303000;25 
0-0-8-305000;-22 
0-0-8-307000;-32 
0-0-8-309000;-17 
0-0-8-311000;16 
0-0-8-314000;25 
0-0-8-316000;107 
0-0-8-318000;86 
0-0-8-320000;97 
0-0-8-322000;65 
0-0-8-324000;-4 
0-0-8-326000;-32 
0-0-8-328000;-52 
0-0-8-330000;-9 
0-0-8-332000;4 
0-0-8-333000;47 
0-0-8-335000;63 
0-0-8-337000;124 
0-0-8-339000;83 
0-0-8-341000;76 
0-0-8-343000;-17 
0-0-8-345000;-15 
0-0-8-348000;-42 
0-0-8-350000;1 
0-0-8-352000;-1 
0-0-8-354000;31 
0-0-8-356000;86 
0-0-8-358000;87 
0-0-8-360000;109 
0-0-8-362000;49 
0-0-8-364000;-14 
0-0-8-366000;-28 
0-0-8-368000;-35 
0-0-8-370000;5 
0-0-8-372000;-18 
0-0-8-382000;35 
0-0-8-384000;2 
0-0-8-386000;-33 
0-0-8-388000;-20 
0-0-8-390000;-23 
0-0-8-392000;4 
0-0-8-394000;46 
0-0-8-396000;80 
0-0-8-398000;105 
0-0-8-400000;78 
0-0-8-402000;34 
0-0-8-404000;-10 
0-0-8-406000;-33 
0-0-8-408000;-20 
0-0-8-410000;-42 
0-0-8-412000;23 
0-0-8-414000;21 
0-0-8-416000;92 
0-0-8-418000;78 
0-0-8-420000;88 
0-0-8-422000;36 
0-0-8-424000;-9 
0-0-8-426000;-14 
0-0-8-428000;-35 
0-0-8-430000;-3 
0-0-8-432000;14 
0-0-8-434000;58 
0-0-8-436000;89 
0-0-8-438000;94 
0-0-8-440000;93 
0-0-8-442000;44 
0-0-8-444000;-10 
0-0-8-446000;-17 
0-0-8-448000;-36 
0-0-8-451000;-27 
0-0-8-453000;23 
0-0-8-455000;66 
0-0-8-457000;73 
0-0-8-458000;115 
0-0-8-460000;78 
0-0-8-462000;60 
0-0-8-464000;-13 
0-0-8-466000;-49 
0-0-8-468000;-21 
0-0-8-470000;-22 
0-0-8-472000;34 
0-0-8-474000;74 
0-0-8-476000;75 
0-0-8-478000;116 
0-0-8-480000;85 
0-0-8-482000;53 
0-0-8-484000;-24 
0-0-8-487000;-17 
0-0-8-489000;-48 
0-0-8-491000;-2 
0-0-8-493000;29 
0-0-8-495000;28 
0-0-8-497000;92 
0-0-8-499000;81 
0-0-8-500000;104 
0-0-8-502000;0 
0-0-8-504000;-25 
0-0-8-506000;-15 
0-0-8-508000;-48 
0-0-8-510000;-1 
0-0-8-512000;8 
0-0-8-514000;47 
0-0-8-516000;89 
0-0-8-518000;101 
0-0-8-521000;70 
0-0-8-523000;11 
0-0-8-525000;-23 
0-0-8-527000;-15 
0-0-8-529000;-48 
0-0-8-531000;-6 
0-0-8-533000;6 
0-0-8-535000;58 
0-0-8-537000;79 
0-0-8-539000;118 
0-0-8-541000;58 
0-0-8-542000;38 
0-0-8-544000;-23 
0-0-8-546000;3 
0-0-8-548000;-47 
0-0-8-550000;10 
0-0-8-552000;18 
0-0-8-555000;69 
0-0-8-557000;111 
0-0-8-559000;111 
0-0-8-561000;84 
0-0-8-563000;30 
0-0-8-565000;5 
0-0-8-567000;-30 
0-0-8-569000;-16 
0-0-8-571000;-18 
0-0-8-573000;41 
0-0-8-575000;45 
0-0-8-577000;125 
0-0-8-579000;85 
0-0-8-581000;85 
0-0-8-591000;-22 
0-0-8-595000;71 
0-0-8-597000;75 
0-0-8-599000;108 
0-0-8-601000;67 
0-0-8-603000;38 
0-0-8-605000;-14 
0-0-8-607000;-23 
0-0-8-609000;-28 
0-0-8-611000;28 
0-0-8-613000;17 
0-0-8-615000;77 
0-0-8-617000;101 
0-0-8-619000;107 
0-0-8-621000;88 
0-0-8-624000;41 
0-0-8-625000;-6 
0-0-8-627000;-20 
0-0-8-629000;8 
0-0-8-631000;-1 
0-0-8-633000;37 
0-0-8-635000;52 
0-0-8-637000;94 
0-0-8-639000;62 
0-0-8-641000;-2 
0-0-8-643000;-65 
0-0-8-645000;-103 
0-0-8-647000;-145 
0-0-8-649000;-160 
0-0-8-651000;-178 
0-0-8-653000;-138 
0-0-8-655000;-125 
0-0-8-658000;-61 
0-0-8-660000;-98 
0-0-8-662000;-121 
0-0-8-664000;-158 
0-0-8-666000;-162 
0-0-8-667000;-132 
0-0-8-669000;-66 
0-0-8-671000;-44 
0-0-8-673000;53 
0-0-8-675000;112 
0-0-8-677000;177 
0-0-8-679000;151 
0-0-8-681000;106 
0-0-8-683000;85 
0-0-8-685000;27 
0-0-8-687000;45 
0-0-8-689000;24 
0-0-8-691000;31 
0-0-8-694000;88 
0-0-8-696000;118 
0-0-8-698000;125 
0-0-8-700000;140 
0-0-8-702000;92 
0-0-8-704000;52 
0-0-8-706000;28 
0-0-8-708000;9 
0-0-8-709000;10 
0-0-8-711000;52 
0-0-8-713000;57 
0-0-8-715000;116 
0-0-8-717000;120 
0-0-8-719000;124 
0-0-8-721000;106 
0-0-8-723000;65 
0-0-8-725000;5 
0-0-8-728000;3 
0-0-8-730000;6 
0-0-8-732000;23 
0-0-8-734000;55 
0-0-8-736000;110 
0-0-8-738000;111 
0-0-8-740000;122 
0-0-8-742000;91 
0-0-8-744000;22 
0-0-8-746000;9 
0-0-8-748000;-15 
0-0-8-749000;4 
0-0-8-751000;33 
0-0-8-753000;59 
0-0-8-755000;63 
0-0-8-757000;119 
0-0-8-759000;105 
0-0-8-762000;69 
0-0-8-764000;19 
0-0-8-766000;-6 
0-0-8-768000;-15 
0-0-8-770000;9 
0-0-8-772000;13 
0-0-8-774000;54 
0-0-8-776000;93 
0-0-8-778000;108 
0-0-8-780000;136 
0-0-8-782000;67 
0-0-8-784000;1 
0-0-8-786000;-5 
0-0-8-788000;-49 
0-0-8-790000;-30 
0-0-8-791000;27 
0-0-8-802000;36 
0-0-8-804000;11 
0-0-8-806000;-44 
0-0-8-808000;-12 
0-0-8-810000;-29 
0-0-8-812000;-6 
0-0-8-814000;31 
0-0-8-816000;85 
0-0-8-818000;114 
0-0-8-820000;60 
0-0-8-822000;38 
0-0-8-824000;6 
0-0-8-826000;-10 
0-0-8-828000;-59 
0-0-8-831000;-36 
0-0-8-833000;3 
0-0-8-834000;31 
0-0-8-836000;55 
0-0-8-838000;101 
0-0-8-840000;68 
0-0-8-842000;33 
0-0-8-844000;-16 
0-0-8-846000;-51 
0-0-8-848000;-51 
0-0-8-850000;-36 
0-0-8-852000;-12 
0-0-8-854000;42 
0-0-8-856000;49 
0-0-8-858000;90 
0-0-8-860000;57 
0-0-8-862000;21 
0-0-8-865000;-1 
0-0-8-867000;-55 
0-0-8-869000;-55 
0-0-8-871000;-19 
0-0-8-873000;3 
0-0-8-874000;24 
0-0-8-876000;70 
0-0-8-878000;62 
0-0-8-880000;69 
0-0-8-882000;16 
0-0-8-884000;-31 
0-0-8-886000;-41 
0-0-8-888000;-48 
0-0-8-890000;-15 
0-0-8-892000;-1 
0-0-8-894000;14 
0-0-8-896000;86 
0-0-8-898000;98 
0-0-8-901000;65 
0-0-8-903000;45 
0-0-8-905000;-17 
0-0-8-907000;-32 
0-0-8-909000;-16 
0-0-8-911000;-11 
0-0-8-913000;23 
0-0-8-915000;34 
0-0-8-916000;100 
0-0-8-918000;89 
0-0-8-920000;79 
0-0-8-922000;46 
0-0-8-924000;-16 
0-0-8-926000;-9 
0-0-8-928000;-14 
0-0-8-930000;27 
0-0-8-932000;8 
0-0-8-935000;66 
0-0-8-937000;112 
0-0-8-939000;119 
0-0-8-941000;81 
0-0-8-943000;36 
0-0-8-945000;0 
0-0-8-947000;-18 
0-0-8-949000;-9 
0-0-8-951000;1 
0-0-8-953000;20 
0-0-8-955000;71 
0-0-8-957000;108 
0-0-8-958000;117 
0-0-8-960000;79 
0-0-8-962000;46 
0-0-8-964000;7 
0-0-8-966000;-7 
0-0-8-969000;-2 
0-0-8-971000;-8 
0-0-8-973000;23 
0-0-8-975000;56 
0-0-8-977000;120 
0-0-8-979000;85 
0-0-8-981000;93 
0-0-8-983000;27 
0-0-8-985000;20 
0-0-8-987000;-42 
0-0-8-989000;-14 
0-0-8-991000;-3 
0-0-8-993000;36 
0-0-8-995000;92 
0-0-8-997000;104 
0-0-8-999000;118 
0-0-9-000000;72 
0-0-9-011000;3 
0-0-9-013000;14 
0-0-9-017000;78 
0-0-9-019000;105 
0-0-9-021000;79 
0-0-9-023000;27 
0-0-9-025000;-26 
0-0-9-027000;-34 
0-0-9-029000;-23 
0-0-9-031000;-8 
0-0-9-033000;18 
0-0-9-035000;62 
0-0-9-038000;99 
0-0-9-040000;114 
0-0-9-041000;75 
0-0-9-043000;46 
0-0-9-045000;-22 
0-0-9-047000;-39 
0-0-9-049000;-5 
0-0-9-051000;-3 
0-0-9-053000;20 
0-0-9-055000;66 
0-0-9-057000;85 
0-0-9-059000;128 
0-0-9-061000;69 
0-0-9-063000;16 
0-0-9-065000;-33 
0-0-9-067000;-28 
0-0-9-069000;-29 
0-0-9-071000;-10 
0-0-9-074000;28 
0-0-9-076000;86 
0-0-9-078000;111 
0-0-9-080000;105 
0-0-9-082000;76 
0-0-9-083000;12 
0-0-9-085000;-11 
0-0-9-087000;-10 
0-0-9-089000;-43 
0-0-9-091000;11 
0-0-9-093000;33 
0-0-9-095000;100 
0-0-9-097000;104 
0-0-9-099000;98 
0-0-9-101000;83 
0-0-9-103000;5 
0-0-9-105000;-12 
0-0-9-108000;-15 
0-0-9-110000;-32 
0-0-9-112000;18 
0-0-9-114000;18 
0-0-9-116000;105 
0-0-9-118000;97 
0-0-9-120000;105 
0-0-9-122000;77 
0-0-9-124000;-2 
0-0-9-125000;-1 
0-0-9-127000;-45 
0-0-9-129000;-23 
0-0-9-131000;14 
0-0-9-133000;36 
0-0-9-135000;81 
0-0-9-137000;106 
0-0-9-139000;100 
0-0-9-142000;71 
0-0-9-144000;-10 
0-0-9-146000;6 
0-0-9-148000;-48 
0-0-9-150000;-29 
0-0-9-152000;16 
0-0-9-154000;38 
0-0-9-156000;78 
0-0-9-158000;117 
0-0-9-160000;111 
0-0-9-162000;88 
0-0-9-164000;7 
0-0-9-166000;-17 
0-0-9-167000;-48 
0-0-9-169000;-12 
0-0-9-171000;6 
0-0-9-173000;32 
0-0-9-176000;91 
0-0-9-178000;108 
0-0-9-180000;122 
0-0-9-182000;36 
0-0-9-184000;13 
0-0-9-186000;-24 
0-0-9-188000;-37 
0-0-9-190000;-6 
0-0-9-192000;29 
0-0-9-194000;36 
0-0-9-196000;86 
0-0-9-198000;108 
0-0-9-200000;112 
0-0-9-202000;62 
0-0-9-204000;-13 
0-0-9-206000;-23 
0-0-9-208000;-32 
0-0-9-210000;-42 
0-0-9-212000;10 
0-0-9-224000;8 
0-0-9-226000;0 
0-0-9-228000;-47 
0-0-9-230000;-7 
0-0-9-232000;-21 
0-0-9-234000;55 
0-0-9-236000;90 
0-0-9-238000;81 
0-0-9-240000;80 
0-0-9-242000;46 
0-0-9-245000;-6 
0-0-9-247000;-25 
0-0-9-249000;-54 
0-0-9-250000;-23 
0-0-9-252000;18 
0-0-9-254000;33 
0-0-9-256000;110 
0-0-9-258000;117 
0-0-9-260000;82 
0-0-9-262000;55 
0-0-9-264000;3 
0-0-9-266000;-44 
0-0-9-268000;-22 
0-0-9-270000;-21 
0-0-9-272000;9 
0-0-9-274000;52 
0-0-9-276000;102 
0-0-9-278000;97 
0-0-9-281000;102 
0-0-9-283000;41 
0-0-9-285000;5 
0-0-9-287000;-39 
0-0-9-289000;-45 
0-0-9-291000;-16 
0-0-9-292000;27 
0-0-9-294000;40 
0-0-9-296000;101 
0-0-9-298000;104 
0-0-9-300000;82 
0-0-9-302000;39 
0-0-9-304000;-31 
0-0-9-306000;-23 
0-0-9-308000;-56 
0-0-9-310000;2 
0-0-9-312000;-5 
0-0-9-315000;39 
0-0-9-317000;101 
0-0-9-319000;92 
0-0-9-321000;66 
0-0-9-323000;37 
0-0-9-325000;-38 
0-0-9-327000;-49 
0-0-9-329000;-37 
0-0-9-331000;-16 
0-0-9-333000;2 
0-0-9-334000;41 
0-0-9-336000;88 
0-0-9-338000;108 
0-0-9-340000;63 
0-0-9-342000;33 
0-0-9-344000;-28 
0-0-9-346000;-29 
0-0-9-349000;-22 
0-0-9-351000;-33 
0-0-9-353000;15 
0-0-9-355000;59 
0-0-9-357000;100 
0-0-9-359000;111 
0-0-9-361000;79 
0-0-9-363000;83 
0-0-9-365000;-24 
0-0-9-367000;-24 
0-0-9-369000;-38 
0-0-9-371000;-16 
0-0-9-373000;6 
0-0-9-374000;64 
0-0-9-376000;120 
0-0-9-378000;78 
0-0-9-380000;76 
0-0-9-383000;32 
0-0-9-385000;-31 
0-0-9-387000;-16 
0-0-9-389000;-56 
0-0-9-391000;-21 
0-0-9-393000;37 
0-0-9-395000;66 
0-0-9-397000;97 
0-0-9-399000;101 
0-0-9-401000;67 
0-0-9-403000;27 
0-0-9-405000;-33 
0-0-9-407000;-27 
0-0-9-409000;-42 
0-0-9-411000;-6 
0-0-9-413000;31 
0-0-9-415000;79 
0-0-9-417000;78 
0-0-9-419000;110 
0-0-9-421000;70 
0-0-9-423000;31 
0-0-9-433000;25 
0-0-9-435000;57 
0-0-9-437000;89 
0-0-9-441000;43 
0-0-9-443000;-46 
0-0-9-445000;-87 
0-0-9-447000;-133 
0-0-9-449000;-146 
0-0-9-452000;-164 
0-0-9-454000;-113 
0-0-9-456000;-128 
0-0-9-458000;-91 
0-0-9-459000;-72 
0-0-9-461000;-116 
0-0-9-463000;-166 
0-0-9-465000;-212 
0-0-9-467000;-178 
0-0-9-469000;-154 
0-0-9-471000;-72 
0-0-9-473000;-11 
0-0-9-475000;67 
0-0-9-477000;174 
0-0-9-479000;176 
0-0-9-481000;119 
0-0-9-483000;87 
0-0-9-485000;42 
0-0-9-488000;23 
0-0-9-490000;22 
0-0-9-492000;46 
0-0-9-494000;63 
0-0-9-496000;117 
0-0-9-498000;128 
0-0-9-499000;148 
0-0-9-501000;101 
0-0-9-503000;46 
0-0-9-505000;10 
0-0-9-507000;6 
0-0-9-509000;15 
0-0-9-511000;33 
0-0-9-513000;85 
0-0-9-515000;116 
0-0-9-517000;151 
0-0-9-519000;142 
0-0-9-522000;91 
0-0-9-524000;38 
0-0-9-526000;20 
0-0-9-528000;-19 
0-0-9-530000;8 
0-0-9-532000;31 
0-0-9-534000;76 
0-0-9-536000;113 
0-0-9-538000;135 
0-0-9-540000;109 
0-0-9-541000;101 
0-0-9-543000;22 
0-0-9-545000;14 
0-0-9-547000;-20 
0-0-9-549000;-7 
0-0-9-551000;29 
0-0-9-553000;64 
0-0-9-556000;90 
0-0-9-558000;126 
0-0-9-560000;117 
0-0-9-562000;93 
0-0-9-564000;35 
0-0-9-566000;6 
0-0-9-568000;-30 
0-0-9-570000;-2 
0-0-9-572000;29 
0-0-9-574000;50 
0-0-9-576000;89 
0-0-9-578000;124 
0-0-9-580000;106 
0-0-9-582000;75 
0-0-9-583000;13 
0-0-9-585000;-22 
0-0-9-587000;-52 
0-0-9-590000;-14 
0-0-9-592000;9 
0-0-9-594000;30 
0-0-9-596000;66 
0-0-9-598000;116 
0-0-9-600000;95 
0-0-9-602000;64 
0-0-9-604000;-21 
0-0-9-606000;-10 
0-0-9-608000;-38 
0-0-9-610000;13 
0-0-9-612000;-11 
0-0-9-614000;52 
0-0-9-616000;74 
0-0-9-618000;140 
0-0-9-620000;77 
0-0-9-622000;66 
0-0-9-624000;-1 
0-0-9-626000;-21 
0-0-9-628000;-25 
0-0-9-630000;5 
0-0-9-632000;-3 
0-0-9-634000;59 
0-0-9-646000;-41 
0-0-9-648000;-32 
0-0-9-650000;-35 
0-0-9-652000;14 
0-0-9-654000;37 
0-0-9-656000;101 
0-0-9-658000;94 
0-0-9-661000;89 
0-0-9-663000;41 
0-0-9-665000;5 
0-0-9-666000;-28 
0-0-9-668000;-52 
0-0-9-670000;-4 
0-0-9-672000;-1 
0-0-9-674000;52 
0-0-9-676000;89 
0-0-9-678000;104 
0-0-9-680000;74 
0-0-9-682000;56 
0-0-9-684000;-12 
0-0-9-686000;-37 
0-0-9-688000;-52 
0-0-9-690000;-20 
0-0-9-692000;-7 
0-0-9-695000;62 
0-0-9-697000;100 
0-0-9-699000;101 
0-0-9-701000;88 
0-0-9-703000;59 
0-0-9-705000;-15 
0-0-9-707000;-18 
0-0-9-708000;-27 
0-0-9-710000;-1 
0-0-9-712000;20 
0-0-9-714000;70 
0-0-9-716000;92 
0-0-9-718000;124 
0-0-9-720000;89 
0-0-9-722000;49 
0-0-9-724000;-22 
0-0-9-726000;-12 
0-0-9-729000;-26 
0-0-9-731000;1 
0-0-9-733000;35 
0-0-9-735000;70 
0-0-9-737000;99 
0-0-9-739000;135 
0-0-9-741000;107 
0-0-9-743000;64 
0-0-9-745000;-2 
0-0-9-747000;-14 
0-0-9-749000;-3 
0-0-9-750000;-13 
0-0-9-752000;33 
0-0-9-754000;65 
0-0-9-756000;112 
0-0-9-758000;116 
0-0-9-760000;115 
0-0-9-763000;22 
0-0-9-765000;8 
0-0-9-767000;-25 
0-0-9-769000;4 
0-0-9-771000;3 
0-0-9-773000;40 
0-0-9-775000;65 
0-0-9-777000;113 
0-0-9-779000;116 
0-0-9-781000;95 
0-0-9-783000;57 
0-0-9-785000;-10 
0-0-9-787000;4 
0-0-9-789000;-35 
0-0-9-791000;12 
0-0-9-792000;10 
0-0-9-794000;78 
0-0-9-797000;74 
0-0-9-799000;115 
0-0-9-801000;67 
0-0-9-803000;30 
0-0-9-805000;6 
0-0-9-807000;-14 
0-0-9-809000;-25 
0-0-9-811000;-7 
0-0-9-813000;35 
0-0-9-815000;52 
0-0-9-817000;103 
0-0-9-819000;103 
0-0-9-821000;89 
0-0-9-823000;20 
0-0-9-825000;15 
0-0-9-827000;-34 
0-0-9-829000;-10 
0-0-9-832000;4 
0-0-9-833000;48 
0-0-9-835000;58 
0-0-9-837000;107 
0-0-9-839000;103 
0-0-9-841000;85 
0-0-9-843000;37 
0-0-9-845000;-26 
0-0-9-855000;53 
0-0-9-857000;99 
0-0-9-859000;117 
0-0-9-861000;89 
0-0-9-865000;-9 
0-0-9-868000;-38 
0-0-9-870000;-8 
0-0-9-872000;-18 
0-0-9-874000;36 
0-0-9-875000;62 
0-0-9-877000;118 
0-0-9-879000;102 
0-0-9-881000;81 
0-0-9-883000;16 
0-0-9-885000;6 
0-0-9-887000;-33 
0-0-9-889000;-6 
0-0-9-891000;11 
0-0-9-893000;27 
0-0-9-895000;81 
0-0-9-897000;108 
0-0-9-899000;137 
0-0-9-902000;52 
0-0-9-904000;36 
0-0-9-906000;-16 
0-0-9-908000;-23 
0-0-9-910000;-1 
0-0-9-912000;-9 
0-0-9-914000;51 
0-0-9-916000;86 
0-0-9-917000;134 
0-0-9-919000;104 
0-0-9-921000;52 
0-0-9-923000;36 
0-0-9-925000;-17 
0-0-9-927000;-25 
0-0-9-929000;-24 
0-0-9-931000;34 
0-0-9-933000;58 
0-0-9-936000;75 
0-0-9-938000;139 
0-0-9-940000;85 
0-0-9-942000;77 
0-0-9-944000;28 
0-0-9-946000;-40 
0-0-9-948000;-44 
0-0-9-950000;-23 
0-0-9-952000;-3 
0-0-9-954000;50 
0-0-9-956000;93 
0-0-9-958000;129 
0-0-9-959000;106 
0-0-9-961000;81 
0-0-9-963000;29 
0-0-9-965000;-24 
0-0-9-967000;-9 
0-0-9-970000;-18 
0-0-9-972000;2 
0-0-9-974000;40 
0-0-9-976000;43 
0-0-9-978000;107 
0-0-9-980000;100 
0-0-9-982000;73 
0-0-9-984000;32 
0-0-9-986000;-29 
0-0-9-988000;-57 
0-0-9-990000;-53 
0-0-9-992000;-23 
0-0-9-994000;12 
0-0-9-996000;68 
0-0-9-998000;133 
0-0-9-999000;132 
0-0-10-001000;107 
0-0-10-004000;33 
0-0-10-006000;-1 
0-0-10-008000;0 
0-0-10-010000;12 
0-0-10-012000;30 
0-0-10-014000;60 
0-0-10-016000;92 
0-0-10-018000;135 
0-0-10-020000;97 
0-0-10-022000;84 
0-0-10-024000;-19 
0-0-10-026000;-7 
0-0-10-028000;-45 
0-0-10-030000;3 
0-0-10-032000;-14 
0-0-10-034000;36 
0-0-10-036000;89 
0-0-10-039000;104 
0-0-10-041000;86 
0-0-10-042000;38 
0-0-10-044000;-30 
0-0-10-046000;-41 
0-0-10-048000;-68 
0-0-10-050000;-41 
0-0-10-052000;-22 
0-0-10-054000;-10 
0-0-10-056000;46 
0-0-10-068000;-7 
0-0-10-070000;-12 
0-0-10-072000;9 
0-0-10-075000;58 
0-0-10-077000;77 
0-0-10-079000;94 
0-0-10-081000;96 
0-0-10-083000;54 
0-0-10-084000;0 
0-0-10-086000;-19 
0-0-10-088000;-25 
0-0-10-090000;-15 
0-0-10-092000;20 
0-0-10-094000;73 
0-0-10-096000;69 
0-0-10-098000;130 
0-0-10-100000;87 
0-0-10-102000;79 
0-0-10-104000;-7 
0-0-10-106000;-19 
0-0-10-109000;-56 
0-0-10-111000;4 
0-0-10-113000;-1 
0-0-10-115000;66 
0-0-10-117000;57 
0-0-10-119000;111 
0-0-10-121000;82 
0-0-10-123000;53 
0-0-10-124000;-12 
0-0-10-126000;-31 
0-0-10-128000;-32 
0-0-10-130000;-31 
0-0-10-132000;-4 
0-0-10-134000;60 
0-0-10-136000;75 
0-0-10-138000;109 
0-0-10-140000;93 
0-0-10-143000;32 
0-0-10-145000;12 
0-0-10-147000;-28 
0-0-10-149000;-7 
0-0-10-151000;-21 
0-0-10-153000;56 
0-0-10-155000;38 
0-0-10-157000;105 
0-0-10-159000;109 
0-0-10-161000;113 
0-0-10-163000;27 
0-0-10-165000;-11 
0-0-10-166000;-24 
0-0-10-168000;-17 
0-0-10-170000;-7 
0-0-10-172000;-1 
0-0-10-174000;79 
0-0-10-177000;90 
0-0-10-179000;127 
0-0-10-181000;89 
0-0-10-183000;32 
0-0-10-185000;-41 
0-0-10-187000;-95 
0-0-10-189000;-125 
0-0-10-191000;-124 
0-0-10-193000;-114 
0-0-10-195000;-72 
0-0-10-197000;-45 
0-0-10-199000;-45 
0-0-10-201000;-97 
0-0-10-203000;-162 
0-0-10-205000;-192 
0-0-10-207000;-190 
0-0-10-208000;-236 
0-0-10-211000;-185 
0-0-10-213000;-137 
0-0-10-215000;-72 
0-0-10-217000;42 
0-0-10-219000;99 
0-0-10-221000;111 
0-0-10-223000;114 
0-0-10-225000;90 
0-0-10-227000;32 
0-0-10-229000;43 
0-0-10-231000;62 
0-0-10-233000;81 
0-0-10-235000;136 
0-0-10-237000;175 
0-0-10-239000;138 
0-0-10-241000;133 
0-0-10-243000;82 
0-0-10-246000;23 
0-0-10-248000;-2 
0-0-10-249000;10 
0-0-10-251000;27 
0-0-10-253000;81 
0-0-10-255000;91 
0-0-10-257000;131 
0-0-10-259000;130 
0-0-10-261000;102 
0-0-10-263000;44 
0-0-10-265000;-4 
0-0-10-267000;-24 
0-0-10-279000;150 
0-0-10-282000;97 
0-0-10-284000;28 
0-0-10-286000;10 
0-0-10-288000;-6 
0-0-10-291000;23 
0-0-10-293000;44 
0-0-10-295000;81 
0-0-10-297000;123 
0-0-10-299000;154 
0-0-10-301000;91 
0-0-10-303000;48 
0-0-10-305000;7 
0-0-10-307000;-10 
0-0-10-309000;3 
0-0-10-311000;-13 
0-0-10-313000;47 
0-0-10-316000;82 
0-0-10-318000;104 
0-0-10-320000;95 
0-0-10-322000;60 
0-0-10-324000;-20 
0-0-10-326000;-35 
0-0-10-328000;-42 
0-0-10-330000;-32 
0-0-10-332000;3 
0-0-10-333000;53 
0-0-10-335000;68 
0-0-10-337000;112 
0-0-10-339000;79 
0-0-10-341000;28 
0-0-10-343000;2 
0-0-10-345000;-37 
0-0-10-347000;-35 
0-0-10-350000;-21 
0-0-10-352000;36 
0-0-10-354000;44 
0-0-10-356000;107 
0-0-10-358000;91 
0-0-10-360000;111 
0-0-10-362000;54 
0-0-10-364000;21 
0-0-10-366000;-20 
0-0-10-368000;-48 
0-0-10-370000;-42 
0-0-10-372000;7 
0-0-10-374000;22 
0-0-10-375000;93 
0-0-10-377000;92 
0-0-10-379000;78 
0-0-10-381000;58 
0-0-10-384000;4 
0-0-10-386000;-75 
0-0-10-388000;-61 
0-0-10-390000;-69 
0-0-10-392000;-60 
0-0-10-394000;9 
0-0-10-396000;25 
0-0-10-398000;81 
0-0-10-400000;80 
0-0-10-402000;26 
0-0-10-404000;-15 
0-0-10-406000;-54 
0-0-10-408000;-75 
0-0-10-410000;-38 
0-0-10-412000;-43 
0-0-10-414000;3 
0-0-10-416000;28 
0-0-10-418000;63 
0-0-10-420000;79 
0-0-10-422000;52 
0-0-10-424000;-19 
0-0-10-426000;-19 
0-0-10-428000;-52 
0-0-10-430000;-2 
0-0-10-432000;-2 
0-0-10-434000;35 
0-0-10-436000;85 
0-0-10-438000;89 
0-0-10-440000;105 
0-0-10-442000;28 
0-0-10-444000;-37 
0-0-10-446000;-34 
0-0-10-448000;-39 
0-0-10-450000;-36 
0-0-10-452000;23 
0-0-10-455000;42 
0-0-10-457000;91 
0-0-10-458000;102 
0-0-10-460000;93 
0-0-10-462000;36 
0-0-10-464000;-18 
0-0-10-466000;-20 
0-0-10-468000;-28 
0-0-10-470000;-37 
0-0-10-472000;9 
0-0-10-474000;41 
0-0-10-476000;83 
0-0-10-478000;103 
0-0-10-480000;80 
0-0-10-493000;44 
0-0-10-495000;63 
0-0-10-497000;101 
0-0-10-499000;133 
0-0-10-500000;124 
0-0-10-502000;76 
0-0-10-504000;7 
0-0-10-506000;11 
0-0-10-508000;-44 
0-0-10-510000;-2 
0-0-10-512000;19 
0-0-10-514000;79 
0-0-10-516000;68 
0-0-10-518000;112 
0-0-10-520000;71 
0-0-10-523000;40 
0-0-10-525000;2 
0-0-10-527000;-14 
0-0-10-529000;-25 
0-0-10-531000;11 
0-0-10-533000;38 
0-0-10-535000;58 
0-0-10-537000;89 
0-0-10-539000;95 
0-0-10-541000;80 
0-0-10-542000;33 
0-0-10-544000;-5 
0-0-10-546000;-38 
0-0-10-548000;-1 
0-0-10-550000;-6 
0-0-10-552000;59 
0-0-10-554000;33 
0-0-10-557000;85 
0-0-10-559000;86 
0-0-10-561000;98 
0-0-10-563000;14 
0-0-10-565000;13 
0-0-10-567000;-19 
0-0-10-569000;-8 
0-0-10-571000;0 
0-0-10-573000;6 
0-0-10-575000;75 
0-0-10-577000;101 
0-0-10-579000;110 
0-0-10-581000;66 
0-0-10-583000;13 
0-0-10-584000;-9 
0-0-10-586000;-43 
0-0-10-588000;-18 
0-0-10-591000;3 
0-0-10-593000;13 
0-0-10-595000;42 
0-0-10-597000;107 
0-0-10-599000;91 
0-0-10-601000;73 
0-0-10-603000;18 
0-0-10-605000;5 
0-0-10-607000;-32 
0-0-10-609000;-16 
0-0-10-611000;-30 
0-0-10-613000;35 
0-0-10-615000;42 
0-0-10-617000;111 
0-0-10-619000;111 
0-0-10-621000;83 
0-0-10-623000;41 
0-0-10-625000;-24 
0-0-10-627000;-49 
0-0-10-629000;-51 
0-0-10-631000;-10 
0-0-10-633000;25 
0-0-10-635000;71 
0-0-10-637000;128 
0-0-10-639000;102 
0-0-10-641000;91 
0-0-10-643000;7 
0-0-10-645000;-48 
0-0-10-647000;-90 
0-0-10-649000;-59 
0-0-10-651000;-13 
0-0-10-653000;23 
0-0-10-655000;81 
0-0-10-657000;121 
0-0-10-659000;139 
0-0-10-662000;83 
0-0-10-664000;66 
0-0-10-666000;-17 
0-0-10-667000;-12 
0-0-10-669000;-33 
0-0-10-671000;16 
0-0-10-673000;28 
0-0-10-675000;60 
0-0-10-677000;99 
0-0-10-679000;110 
0-0-10-681000;89 
0-0-10-683000;36 
0-0-10-685000;-15 
0-0-10-687000;-46 
0-0-10-689000;-32 
0-0-10-691000;-12 
0-0-10-702000;96 
0-0-10-704000;34 
0-0-10-706000;-21 
0-0-10-708000;-23 
0-0-10-709000;-28 
0-0-10-711000;-1 
0-0-10-715000;70 
0-0-10-717000;112 
0-0-10-719000;86 
0-0-10-721000;83 
0-0-10-723000;-15 
0-0-10-725000;-11 
0-0-10-727000;-33 
0-0-10-730000;-10 
0-0-10-732000;-25 
0-0-10-734000;29 
0-0-10-736000;62 
0-0-10-738000;111 
0-0-10-740000;110 
0-0-10-742000;53 
0-0-10-744000;41 
0-0-10-746000;-24 
0-0-10-748000;-8 
0-0-10-749000;-44 
0-0-10-751000;-6 
0-0-10-753000;15 
0-0-10-755000;95 
0-0-10-757000;102 
0-0-10-759000;107 
0-0-10-761000;65 
0-0-10-764000;-31 
0-0-10-766000;-62 
0-0-10-768000;-77 
0-0-10-770000;-60 
0-0-10-772000;-20 
0-0-10-774000;56 
0-0-10-776000;98 
0-0-10-778000;123 
0-0-10-780000;100 
0-0-10-782000;86 
0-0-10-784000;12 
0-0-10-786000;-3 
0-0-10-788000;-46 
0-0-10-790000;-33 
0-0-10-791000;-23 
0-0-10-793000;49 
0-0-10-795000;97 
0-0-10-798000;127 
0-0-10-800000;131 
0-0-10-802000;89 
0-0-10-804000;39 
0-0-10-806000;2 
0-0-10-808000;-42 
0-0-10-810000;-22 
0-0-10-812000;30 
0-0-10-814000;60 
0-0-10-816000;59 
0-0-10-818000;118 
0-0-10-820000;84 
0-0-10-822000;77 
0-0-10-824000;9 
0-0-10-826000;-19 
0-0-10-828000;-21 
0-0-10-830000;-2 
0-0-10-833000;23 
0-0-10-834000;56 
0-0-10-836000;88 
0-0-10-838000;93 
0-0-10-840000;104 
0-0-10-842000;39 
0-0-10-844000;10 
0-0-10-846000;-14 
0-0-10-848000;-40 
0-0-10-850000;-7 
0-0-10-852000;34 
0-0-10-854000;64 
0-0-10-856000;97 
0-0-10-858000;108 
0-0-10-860000;131 
0-0-10-862000;39 
0-0-10-864000;15 
0-0-10-866000;-23 
0-0-10-869000;-20 
0-0-10-871000;-5 
0-0-10-873000;7 
0-0-10-874000;62 
0-0-10-876000;88 
0-0-10-878000;141 
0-0-10-880000;114 
0-0-10-882000;51 
0-0-10-884000;12 
0-0-10-886000;-12 
0-0-10-888000;-78 
0-0-10-890000;-66 
0-0-10-892000;-70 
0-0-10-894000;-73 
0-0-10-896000;-55 
0-0-10-898000;-65 
0-0-10-900000;-94 
0-0-10-903000;-155 
0-0-10-915000;-118 
0-0-10-916000;-39 
0-0-10-918000;56 
0-0-10-920000;74 
0-0-10-922000;69 
0-0-10-924000;65 
0-0-10-926000;51 
0-0-10-928000;35 
0-0-10-930000;55 
0-0-10-932000;103 
0-0-10-934000;103 
0-0-10-937000;139 
0-0-10-939000;156 
0-0-10-941000;158 
0-0-10-943000;94 
0-0-10-945000;43 
0-0-10-947000;12 
0-0-10-949000;4 
0-0-10-951000;9 
0-0-10-953000;71 
0-0-10-955000;80 
0-0-10-957000;111 
0-0-10-958000;142 
0-0-10-960000;132 
0-0-10-962000;96 
0-0-10-964000;20 
0-0-10-966000;14 
0-0-10-968000;3 
0-0-10-971000;30 
0-0-10-973000;57 
0-0-10-975000;86 
0-0-10-977000;112 
0-0-10-979000;145 
0-0-10-981000;109 
0-0-10-983000;61 
0-0-10-985000;-7 
0-0-10-987000;8 
0-0-10-989000;4 
0-0-10-991000;29 
0-0-10-993000;47 
0-0-10-995000;89 
0-0-10-997000;114 
0-0-10-999000;157 
0-0-11-000000;112 
0-0-11-002000;12 
0-0-11-005000;-22 
0-0-11-007000;-21 
0-0-11-009000;-42 
0-0-11-011000;-9 
0-0-11-013000;56 
0-0-11-015000;85 
0-0-11-017000;127 
0-0-11-019000;131 
0-0-11-021000;105 
0-0-11-023000;43 
0-0-11-025000;5 
0-0-11-027000;-24 
0-0-11-029000;-12 
0-0-11-031000;-9 
0-0-11-033000;28 
0-0-11-035000;60 
0-0-11-037000;133 
0-0-11-039000;100 
0-0-11-041000;76 
0-0-11-043000;44 
0-0-11-045000;-11 
0-0-11-047000;-38 
0-0-11-049000;-23 
0-0-11-051000;-24 
0-0-11-053000;18 
0-0-11-055000;48 
0-0-11-057000;94 
0-0-11-059000;108 
0-0-11-061000;73 
0-0-11-063000;62 
0-0-11-065000;-18 
0-0-11-067000;-28 
0-0-11-069000;10 
0-0-11-071000;-19 
0-0-11-073000;35 
0-0-11-076000;83 
0-0-11-078000;68 
0-0-11-080000;105 
0-0-11-082000;80 
0-0-11-083000;23 
0-0-11-085000;-41 
0-0-11-087000;-43 
0-0-11-089000;-51 
0-0-11-091000;-12 
0-0-11-093000;5 
0-0-11-095000;55 
0-0-11-097000;101 
0-0-11-099000;81 
0-0-11-101000;73 
0-0-11-103000;5 
0-0-11-105000;-68 
0-0-11-107000;-51 
0-0-11-110000;-70 
0-0-11-112000;-19 
0-0-11-114000;-5 
0-0-11-125000;-19 
0-0-11-127000;-55 
0-0-11-129000;-18 
0-0-11-131000;-53 
0-0-11-133000;7 
0-0-11-135000;52 
0-0-11-137000;89 
0-0-11-141000;67 
0-0-11-144000;6 
0-0-11-146000;-29 
0-0-11-148000;-38 
0-0-11-150000;-26 
0-0-11-152000;-3 
0-0-11-154000;44 
0-0-11-156000;89 
0-0-11-158000;103 
0-0-11-160000;99 
0-0-11-162000;64 
0-0-11-164000;20 
0-0-11-166000;-31 
0-0-11-167000;-19 
0-0-11-169000;-42 
0-0-11-171000;-1 
0-0-11-173000;55 
0-0-11-175000;94 
0-0-11-178000;123 
0-0-11-180000;120 
0-0-11-182000;121 
0-0-11-184000;17 
0-0-11-186000;-15 
0-0-11-188000;-27 
0-0-11-190000;-6 
0-0-11-192000;21 
0-0-11-194000;52 
0-0-11-196000;73 
0-0-11-198000;133 
0-0-11-200000;100 
0-0-11-202000;56 
0-0-11-204000;22 
0-0-11-206000;-1 
0-0-11-208000;-57 
0-0-11-209000;-7 
0-0-11-212000;28 
0-0-11-214000;27 
0-0-11-216000;77 
0-0-11-218000;126 
0-0-11-220000;106 
0-0-11-222000;83 
0-0-11-224000;35 
0-0-11-226000;-34 
0-0-11-228000;-26 
0-0-11-230000;-3 
0-0-11-232000;45 
0-0-11-234000;45 
0-0-11-236000;104 
0-0-11-238000;105 
0-0-11-240000;111 
0-0-11-242000;82 
0-0-11-244000;9 
0-0-11-246000;-27 
0-0-11-249000;-14 
0-0-11-250000;-14 
0-0-11-252000;32 
0-0-11-254000;41 
0-0-11-256000;72 
0-0-11-258000;118 
0-0-11-260000;108 
0-0-11-262000;50 
0-0-11-264000;13 
0-0-11-266000;-39 
0-0-11-268000;-52 
0-0-11-270000;-9 
0-0-11-272000;-4 
0-0-11-274000;45 
0-0-11-276000;110 
0-0-11-278000;127 
0-0-11-280000;105 
0-0-11-283000;63 
0-0-11-285000;-10 
0-0-11-287000;-30 
0-0-11-289000;-36 
0-0-11-291000;-15 
0-0-11-292000;8 
0-0-11-294000;65 
0-0-11-296000;91 
0-0-11-298000;123 
0-0-11-300000;88 
0-0-11-302000;38 
0-0-11-304000;-13 
0-0-11-306000;-14 
0-0-11-308000;-46 
0-0-11-310000;-20 
0-0-11-312000;36 
0-0-11-314000;54 
0-0-11-317000;122 
0-0-11-319000;135 
0-0-11-321000;85 
0-0-11-323000;50 
0-0-11-325000;25 
0-0-11-327000;-44 
0-0-11-338000;99 
0-0-11-340000;83 
0-0-11-342000;46 
0-0-11-344000;28 
0-0-11-346000;-8 
0-0-11-348000;-36 
0-0-11-351000;-15 
0-0-11-353000;31 
0-0-11-355000;66 
0-0-11-357000;82 
0-0-11-359000;110 
0-0-11-361000;91 
0-0-11-363000;47 
0-0-11-365000;21 
0-0-11-367000;-6 
0-0-11-369000;-30 
0-0-11-371000;10 
0-0-11-373000;33 
0-0-11-374000;48 
0-0-11-376000;86 
0-0-11-378000;125 
0-0-11-380000;99 
0-0-11-382000;57 
0-0-11-385000;-20 
0-0-11-387000;-40 
0-0-11-389000;-47 
0-0-11-391000;12 
0-0-11-393000;17 
0-0-11-395000;61 
0-0-11-397000;111 
0-0-11-399000;103 
0-0-11-401000;105 
0-0-11-403000;21 
0-0-11-405000;-27 
0-0-11-407000;-29 
0-0-11-409000;-32 
0-0-11-411000;-9 
0-0-11-413000;23 
0-0-11-415000;47 
0-0-11-416000;110 
0-0-11-419000;100 
0-0-11-421000;113 
0-0-11-423000;65 
0-0-11-425000;-17 
0-0-11-427000;-32 
0-0-11-429000;-6 
0-0-11-431000;-34 
0-0-11-433000;30 
0-0-11-435000;49 
0-0-11-437000;108 
0-0-11-439000;119 
0-0-11-441000;71 
0-0-11-443000;55 
0-0-11-445000;-10 
0-0-11-447000;-33 
0-0-11-449000;-32 
0-0-11-451000;-24 
0-0-11-453000;21 
0-0-11-456000;53 
0-0-11-458000;60 
0-0-11-459000;84 
0-0-11-461000;60 
0-0-11-463000;-2 
0-0-11-465000;-20 
0-0-11-467000;-8 
0-0-11-469000;-43 
0-0-11-471000;6 
0-0-11-473000;24 
0-0-11-475000;74 
0-0-11-477000;90 
0-0-11-479000;88 
0-0-11-481000;79 
0-0-11-483000;19 
0-0-11-485000;-60 
0-0-11-487000;-56 
0-0-11-490000;-52 
0-0-11-492000;-46 
0-0-11-494000;34 
0-0-11-496000;63 
0-0-11-498000;102 
0-0-11-499000;120 
0-0-11-501000;116 
0-0-11-503000;32 
0-0-11-505000;-8 
0-0-11-507000;-58 
0-0-11-509000;-40 
0-0-11-511000;-7 
0-0-11-513000;37 
0-0-11-515000;68 
0-0-11-517000;113 
0-0-11-519000;123 
0-0-11-521000;114 
0-0-11-524000;39 
0-0-11-526000;-6 
0-0-11-528000;-28 
0-0-11-530000;-24 
0-0-11-532000;-1 
0-0-11-534000;11 
0-0-11-536000;68 
0-0-11-538000;108 
0-0-11-549000;-30 
0-0-11-551000;9 
0-0-11-553000;27 
0-0-11-555000;62 
0-0-11-558000;94 
0-0-11-560000;116 
0-0-11-562000;66 
0-0-11-564000;15 
0-0-11-568000;-10 
0-0-11-570000;-29 
0-0-11-572000;-9 
0-0-11-574000;19 
0-0-11-576000;73 
0-0-11-578000;122 
0-0-11-580000;117 
0-0-11-582000;68 
0-0-11-583000;20 
0-0-11-585000;14 
0-0-11-587000;-35 
0-0-11-589000;-14 
0-0-11-592000;17 
0-0-11-594000;10 
0-0-11-596000;59 
0-0-11-598000;84 
0-0-11-600000;12 
0-0-11-602000;-11 
0-0-11-604000;-110 
0-0-11-606000;-172 
0-0-11-608000;-226 
0-0-11-610000;-225 
0-0-11-612000;-180 
0-0-11-614000;-151 
0-0-11-616000;-113 
0-0-11-618000;-70 
0-0-11-620000;-84 
0-0-11-622000;-82 
0-0-11-624000;-127 
0-0-11-626000;-110 
0-0-11-628000;-69 
0-0-11-630000;-33 
0-0-11-632000;74 
0-0-11-634000;83 
0-0-11-636000;168 
0-0-11-638000;213 
0-0-11-640000;173 
0-0-11-642000;138 
0-0-11-644000;70 
0-0-11-646000;21 
0-0-11-648000;-1 
0-0-11-650000;10 
0-0-11-652000;60 
0-0-11-654000;49 
0-0-11-656000;108 
0-0-11-658000;114 
0-0-11-660000;119 
0-0-11-663000;96 
0-0-11-665000;52 
0-0-11-666000;34 
0-0-11-668000;18 
0-0-11-670000;62 
0-0-11-672000;41 
0-0-11-674000;72 
0-0-11-676000;123 
0-0-11-678000;162 
0-0-11-680000;147 
0-0-11-682000;71 
0-0-11-684000;38 
0-0-11-686000;11 
0-0-11-688000;2 
0-0-11-690000;22 
0-0-11-692000;26 
0-0-11-694000;81 
0-0-11-697000;107 
0-0-11-699000;159 
0-0-11-701000;118 
0-0-11-703000;89 
0-0-11-705000;14 
0-0-11-707000;6 
0-0-11-708000;-5 
0-0-11-710000;0 
0-0-11-712000;19 
0-0-11-714000;68 
0-0-11-716000;111 
0-0-11-718000;110 
0-0-11-720000;113 
0-0-11-722000;57 
0-0-11-724000;11 
0-0-11-726000;-34 
0-0-11-728000;-51 
0-0-11-731000;-25 
0-0-11-733000;4 
0-0-11-735000;65 
0-0-11-737000;107 
0-0-11-739000;103 
0-0-11-741000;101 
0-0-11-743000;42 
0-0-11-745000;17 
0-0-11-747000;-32 
0-0-11-749000;-20 
0-0-11-750000;-1 
0-0-11-762000;87 
0-0-11-765000;-18 
0-0-11-767000;-18 
0-0-11-769000;-65 
0-0-11-771000;-30 
0-0-11-773000;-1 
0-0-11-775000;71 
0-0-11-777000;68 
0-0-11-779000;122 
0-0-11-781000;96 
0-0-11-783000;70 
0-0-11-785000;-3 
0-0-11-787000;-28 
0-0-11-789000;-23 
0-0-11-791000;-36 
0-0-11-792000;17 
0-0-11-794000;16 
0-0-11-796000;74 
0-0-11-799000;75 
0-0-11-801000;97 
0-0-11-803000;14 
0-0-11-805000;-15 
0-0-11-807000;-47 
0-0-11-809000;-25 
0-0-11-811000;-17 
0-0-11-813000;5 
0-0-11-815000;39 
0-0-11-817000;76 
0-0-11-819000;114 
0-0-11-821000;80 
0-0-11-823000;17 
0-0-11-825000;-41 
0-0-11-827000;-44 
0-0-11-829000;-73 
0-0-11-831000;-43 
0-0-11-833000;-16 
0-0-11-835000;44 
0-0-11-837000;78 
0-0-11-839000;114 
0-0-11-841000;61 
0-0-11-843000;38 
0-0-11-845000;-17 
0-0-11-847000;-6 
0-0-11-849000;-52 
0-0-11-851000;-11 
0-0-11-853000;-1 
0-0-11-855000;62 
0-0-11-857000;89 
0-0-11-859000;130 
0-0-11-861000;74 
0-0-11-863000;46 
0-0-11-865000;-25 
0-0-11-867000;-4 
0-0-11-870000;-38 
0-0-11-872000;15 
0-0-11-874000;27 
0-0-11-875000;86 
0-0-11-877000;95 
0-0-11-879000;122 
0-0-11-881000;82 
0-0-11-883000;33 
0-0-11-885000;-3 
0-0-11-887000;-12 
0-0-11-889000;-20 
0-0-11-891000;8 
0-0-11-893000;52 
0-0-11-895000;92 
0-0-11-897000;116 
0-0-11-899000;138 
0-0-11-901000;83 
0-0-11-904000;59 
0-0-11-906000;3 
0-0-11-908000;-34 
0-0-11-910000;-25 
0-0-11-912000;-5 
0-0-11-914000;55 
0-0-11-916000;55 
0-0-11-917000;131 
0-0-11-919000;118 
0-0-11-921000;100 
0-0-11-923000;40 
0-0-11-925000;-5 
0-0-11-927000;-42 
0-0-11-929000;-30 
0-0-11-931000;7 
0-0-11-933000;29 
0-0-11-935000;82 
0-0-11-938000;107 
0-0-11-940000;139 
0-0-11-942000;81 
0-0-11-944000;37 
0-0-11-946000;-23 
0-0-11-948000;-28 
0-0-11-950000;-7 
0-0-11-952000;9 
0-0-11-954000;43 
0-0-11-956000;75 
0-0-11-958000;106 
0-0-11-959000;120 
0-0-11-961000;50 
0-0-11-976000;89 
0-0-11-978000;112 
0-0-11-980000;114 
0-0-11-982000;65 
0-0-11-984000;32 
0-0-11-986000;-16 
0-0-11-988000;-22 
0-0-11-990000;8 
0-0-11-992000;32 
0-0-11-996000;84 
0-0-11-998000;116 
0-0-11-999000;101 
0-0-12-001000;64 
0-0-12-003000;30 
0-0-12-006000;-6 
0-0-12-008000;-29 
0-0-12-010000;-15 
0-0-12-012000;1 
0-0-12-014000;45 
0-0-12-016000;76 
0-0-12-018000;110 
0-0-12-020000;80 
0-0-12-022000;56 
0-0-12-024000;23 
0-0-12-026000;-32 
0-0-12-028000;-16 
0-0-12-030000;-7 
0-0-12-032000;13 
0-0-12-034000;46 
0-0-12-036000;93 
0-0-12-038000;108 
0-0-12-040000;80 
0-0-12-042000;63 
0-0-12-044000;-1 
0-0-12-046000;-34 
0-0-12-048000;-38 
0-0-12-050000;-8 
0-0-12-052000;20 
0-0-12-054000;34 
0-0-12-056000;91 
0-0-12-058000;110 
0-0-12-060000;119 
0-0-12-062000;80 
0-0-12-064000;10 
0-0-12-066000;-15 
0-0-12-068000;-42 
0-0-12-070000;-2 
0-0-12-072000;6 
0-0-12-074000;30 
0-0-12-077000;80 
0-0-12-079000;106 
0-0-12-081000;107 
0-0-12-083000;57 
0-0-12-084000;-7 
0-0-12-086000;-38 
0-0-12-088000;-34 
0-0-12-090000;-10 
0-0-12-092000;25 
0-0-12-094000;48 
0-0-12-096000;70 
0-0-12-098000;112 
0-0-12-100000;105 
0-0-12-102000;60 
0-0-12-104000;-2 
0-0-12-106000;-12 
0-0-12-108000;-17 
0-0-12-111000;-19 
0-0-12-113000;4 
0-0-12-115000;45 
0-0-12-117000;74 
0-0-12-119000;134 
0-0-12-121000;89 
0-0-12-123000;35 
0-0-12-124000;-15 
0-0-12-126000;-43 
0-0-12-128000;-18 
0-0-12-130000;-44 
0-0-12-132000;31 
0-0-12-134000;70 
0-0-12-136000;128 
0-0-12-138000;124 
0-0-12-140000;96 
0-0-12-142000;43 
0-0-12-145000;-20 
0-0-12-147000;-10 
0-0-12-149000;-57 
0-0-12-151000;-12 
0-0-12-153000;29 
0-0-12-155000;68 
0-0-12-157000;97 
0-0-12-159000;113 
0-0-12-161000;110 
0-0-12-163000;38 
0-0-12-165000;-11 
0-0-12-166000;-34 
0-0-12-168000;-57 
0-0-12-170000;-39 
0-0-12-172000;6 
0-0-12-174000;56 
0-0-12-176000;88 
0-0-12-189000;-72 
0-0-12-191000;-26 
0-0-12-193000;-16 
0-0-12-195000;33 
0-0-12-197000;80 
0-0-12-199000;98 
0-0-12-201000;87 
0-0-12-203000;7 
0-0-12-205000;-19 
0-0-12-207000;-10 
0-0-12-208000;-56 
0-0-12-210000;-1 
0-0-12-213000;4 
0-0-12-215000;50 
0-0-12-217000;84 
0-0-12-219000;126 
0-0-12-221000;95 
0-0-12-223000;54 
0-0-12-225000;-24 
0-0-12-227000;-11 
0-0-12-229000;-34 
0-0-12-231000;9 
0-0-12-233000;23 
0-0-12-235000;59 
0-0-12-237000;116 
0-0-12-239000;122 
0-0-12-241000;85 
0-0-12-243000;37 
0-0-12-245000;-11 
0-0-12-247000;-2 
0-0-12-249000;-34 
0-0-12-251000;-26 
0-0-12-253000;4 
0-0-12-255000;44 
0-0-12-257000;99 
0-0-12-259000;105 
0-0-12-261000;74 
0-0-12-263000;43 
0-0-12-265000;6 
0-0-12-267000;-9 
0-0-12-269000;-26 
0-0-12-271000;-1 
0-0-12-273000;7 
0-0-12-275000;55 
0-0-12-277000;110 
0-0-12-279000;90 
0-0-12-281000;89 
0-0-12-284000;48 
0-0-12-286000;0 
0-0-12-288000;-22 
0-0-12-290000;-9 
0-0-12-291000;4 
0-0-12-293000;19 
0-0-12-295000;69 
0-0-12-297000;102 
0-0-12-299000;104 
0-0-12-301000;97 
0-0-12-303000;59 
0-0-12-305000;12 
0-0-12-307000;-31 
0-0-12-309000;-12 
0-0-12-311000;-12 
0-0-12-313000;3 
0-0-12-315000;29 
0-0-12-318000;47 
0-0-12-320000;36 
0-0-12-322000;-25 
0-0-12-324000;-78 
0-0-12-326000;-158 
0-0-12-328000;-202 
0-0-12-330000;-222 
0-0-12-332000;-181 
0-0-12-333000;-149 
0-0-12-335000;-116 
0-0-12-337000;-100 
0-0-12-339000;-88 
0-0-12-341000;-100 
0-0-12-343000;-103 
0-0-12-345000;-114 
0-0-12-347000;-64 
0-0-12-349000;-22 
0-0-12-352000;73 
0-0-12-354000;99 
0-0-12-356000;134 
0-0-12-358000;186 
0-0-12-360000;178 
0-0-12-362000;150 
0-0-12-364000;91 
0-0-12-366000;45 
0-0-12-368000;-4 
0-0-12-370000;27 
0-0-12-372000;36 
0-0-12-374000;66 
0-0-12-375000;105 
0-0-12-377000;166 
0-0-12-379000;133 
0-0-12-381000;108 
0-0-12-383000;41 
0-0-12-386000;10 
0-0-12-388000;20 
0-0-12-400000;105 
0-0-12-402000;106 
0-0-12-404000;51 
0-0-12-406000;10 
0-0-12-408000;7 
0-0-12-410000;-10 
0-0-12-412000;12 
0-0-12-414000;64 
0-0-12-416000;130 
0-0-12-417000;132 
0-0-12-422000;113 
0-0-12-424000;32 
0-0-12-426000;1 
0-0-12-428000;3 
0-0-12-430000;-33 
0-0-12-432000;15 
0-0-12-434000;71 
0-0-12-436000;108 
0-0-12-438000;104 
0-0-12-440000;103 
0-0-12-442000;54 
0-0-12-444000;36 
0-0-12-446000;-13 
0-0-12-448000;-16 
0-0-12-450000;14 
0-0-12-452000;24 
0-0-12-454000;61 
0-0-12-457000;85 
0-0-12-458000;108 
0-0-12-460000;112 
0-0-12-462000;95 
0-0-12-464000;6 
0-0-12-466000;-6 
0-0-12-468000;-38 
0-0-12-470000;-16 
0-0-12-472000;28 
0-0-12-474000;59 
0-0-12-476000;103 
0-0-12-478000;119 
0-0-12-480000;110 
0-0-12-482000;83 
0-0-12-484000;-12 
0-0-12-486000;-26 
0-0-12-488000;-58 
0-0-12-491000;-34 
0-0-12-493000;-26 
0-0-12-495000;27 
0-0-12-497000;57 
0-0-12-499000;97 
0-0-12-500000;97 
0-0-12-502000;39 
0-0-12-504000;-3 
0-0-12-506000;-53 
0-0-12-508000;-17 
0-0-12-510000;-33 
0-0-12-512000;1 
0-0-12-514000;21 
0-0-12-516000;68 
0-0-12-518000;111 
0-0-12-520000;94 
0-0-12-522000;44 
0-0-12-525000;-14 
0-0-12-527000;-29 
0-0-12-529000;-63 
0-0-12-531000;-51 
0-0-12-533000;-6 
0-0-12-535000;12 
0-0-12-537000;84 
0-0-12-539000;122 
0-0-12-541000;73 
0-0-12-542000;56 
0-0-12-544000;-14 
0-0-12-546000;-36 
0-0-12-548000;-52 
0-0-12-550000;-59 
0-0-12-552000;-23 
0-0-12-554000;37 
0-0-12-556000;60 
0-0-12-559000;126 
0-0-12-561000;83 
0-0-12-563000;19 
0-0-12-565000;1 
0-0-12-567000;-34 
0-0-12-569000;-81 
0-0-12-571000;-31 
0-0-12-573000;6 
0-0-12-575000;50 
0-0-12-577000;99 
0-0-12-579000;91 
0-0-12-581000;94 
0-0-12-583000;45 
0-0-12-584000;7 
0-0-12-586000;-6 
0-0-12-588000;-34 
0-0-12-590000;-20 
0-0-12-593000;49 
0-0-12-595000;40 
0-0-12-597000;102 
0-0-12-599000;132 
0-0-12-601000;82 
0-0-12-613000;13 
0-0-12-615000;60 
0-0-12-617000;102 
0-0-12-619000;133 
0-0-12-621000;99 
0-0-12-623000;40 
0-0-12-624000;-9 
0-0-12-626000;-55 
0-0-12-629000;-48 
0-0-12-631000;-32 
0-0-12-633000;20 
0-0-12-635000;57 
0-0-12-637000;120 
0-0-12-639000;152 
0-0-12-641000;101 
0-0-12-643000;53 
0-0-12-645000;5 
0-0-12-647000;-22 
0-0-12-649000;-26 
0-0-12-651000;26 
0-0-12-653000;9 
0-0-12-655000;75 
0-0-12-657000;94 
0-0-12-659000;136 
0-0-12-661000;96 
0-0-12-664000;40 
0-0-12-666000;7 
0-0-12-667000;-31 
0-0-12-669000;8 
0-0-12-671000;-2 
0-0-12-673000;40 
0-0-12-675000;52 
0-0-12-677000;121 
0-0-12-679000;85 
0-0-12-681000;92 
0-0-12-683000;32 
0-0-12-685000;-16 
0-0-12-687000;-20 
0-0-12-689000;-25 
0-0-12-691000;-7 
0-0-12-693000;13 
0-0-12-695000;67 
0-0-12-698000;98 
0-0-12-700000;95 
0-0-12-702000;89 
0-0-12-704000;20 
0-0-12-706000;6 
0-0-12-708000;-43 
0-0-12-709000;-35 
0-0-12-711000;-9 
0-0-12-713000;23 
0-0-12-715000;86 
0-0-12-717000;96 
0-0-12-719000;116 
0-0-12-721000;82 
0-0-12-723000;41 
0-0-12-725000;-15 
0-0-12-727000;-53 
0-0-12-729000;-26 
0-0-12-732000;-37 
0-0-12-734000;32 
0-0-12-736000;56 
0-0-12-738000;91 
0-0-12-740000;123 
0-0-12-742000;78 
0-0-12-744000;52 
0-0-12-746000;-21 
0-0-12-748000;-22 
0-0-12-749000;-38 
0-0-12-751000;16 
0-0-12-753000;19 
0-0-12-755000;70 
0-0-12-757000;87 
0-0-12-759000;111 
0-0-12-761000;71 
0-0-12-763000;14 
0-0-12-766000;-36 
0-0-12-768000;-34 
0-0-12-770000;-28 
0-0-12-772000;10 
0-0-12-774000;41 
0-0-12-776000;84 
0-0-12-778000;101 
0-0-12-780000;96 
0-0-12-782000;63 
0-0-12-784000;21 
0-0-12-786000;-23 
0-0-12-788000;-16 
0-0-12-790000;-11 
0-0-12-791000;-9 
0-0-12-793000;56 
0-0-12-795000;53 
0-0-12-797000;102 
0-0-12-800000;120 
0-0-12-802000;55 
0-0-12-804000;39 
0-0-12-806000;-12 
0-0-12-808000;-8 
0-0-12-810000;-22 
0-0-12-812000;-11 
0-0-12-822000;64 
0-0-12-824000;13 
0-0-12-826000;-19 
0-0-12-828000;-13 
0-0-12-830000;-26 
0-0-12-832000;5 
0-0-12-833000;14 
0-0-12-836000;83 
0-0-12-838000;75 
0-0-12-840000;88 
0-0-12-842000;44 
0-0-12-846000;3 
0-0-12-848000;-42 
0-0-12-850000;-15 
0-0-12-852000;-18 
0-0-12-854000;63 
0-0-12-856000;48 
0-0-12-858000;127 
0-0-12-860000;96 
0-0-12-862000;75 
0-0-12-864000;23 
0-0-12-866000;-17 
0-0-12-868000;-40 
0-0-12-871000;-36 
0-0-12-873000;16 
0-0-12-874000;44 
0-0-12-876000;88 
0-0-12-878000;116 
0-0-12-880000;117 
0-0-12-882000;88 
0-0-12-884000;8 
0-0-12-886000;-21 
0-0-12-888000;-40 
0-0-12-890000;-14 
0-0-12-892000;16 
0-0-12-894000;37 
0-0-12-896000;76 
0-0-12-898000;106 
0-0-12-900000;118 
0-0-12-902000;47 
0-0-12-905000;22 
0-0-12-907000;-44 
0-0-12-909000;-30 
0-0-12-911000;-31 
0-0-12-913000;1 
0-0-12-915000;43 
0-0-12-916000;63 
0-0-12-918000;132 
0-0-12-920000;91 
0-0-12-922000;27 
0-0-12-924000;-7 
0-0-12-926000;-15 
0-0-12-928000;-41 
0-0-12-930000;-3 
0-0-12-932000;-6 
0-0-12-934000;33 
0-0-12-936000;59 
0-0-12-939000;118 
0-0-12-941000;70 
0-0-12-943000;70 
0-0-12-945000;13 
0-0-12-947000;-9 
0-0-12-949000;-13 
0-0-12-951000;-26 
0-0-12-953000;11 
0-0-12-955000;22 
0-0-12-957000;84 
0-0-12-958000;112 
0-0-12-960000;77 
0-0-12-962000;45 
0-0-12-964000;4 
0-0-12-966000;-33 
0-0-12-968000;-47 
0-0-12-970000;-18 
0-0-12-973000;-3 
0-0-12-975000;52 
0-0-12-977000;90 
0-0-12-979000;88 
0-0-12-981000;75 
0-0-12-983000;30 
0-0-12-985000;-4 
0-0-12-987000;-43 
0-0-12-989000;-62 
0-0-12-991000;-33 
0-0-12-993000;-19 
0-0-12-995000;37 
0-0-12-997000;89 
0-0-12-999000;120 
0-0-13-000000;106 
0-0-13-002000;45 
0-0-13-004000;11 
0-0-13-007000;-48 
0-0-13-009000;-23 
0-0-13-011000;-36 
0-0-13-013000;21 
0-0-13-015000;56 
0-0-13-017000;63 
0-0-13-019000;124 
0-0-13-021000;89 
0-0-13-023000;76 
0-0-13-035000;53 
0-0-13-037000;95 
0-0-13-039000;102 
0-0-13-041000;111 
0-0-13-043000;56 
0-0-13-045000;-2 
0-0-13-047000;-43 
0-0-13-049000;-21 
0-0-13-051000;-7 
0-0-13-053000;10 
0-0-13-055000;50 
0-0-13-057000;109 
0-0-13-059000;126 
0-0-13-061000;98 
0-0-13-063000;47 
0-0-13-065000;-23 
0-0-13-067000;-19 
0-0-13-069000;-26 
0-0-13-071000;14 
0-0-13-073000;26 
0-0-13-075000;64 
0-0-13-078000;136 
0-0-13-080000;115 
0-0-13-082000;97 
0-0-13-083000;35 
0-0-13-085000;7 
0-0-13-087000;-28 
0-0-13-089000;4 
0-0-13-091000;-44 
0-0-13-093000;19 
0-0-13-095000;37 
0-0-13-097000;114 
0-0-13-099000;71 
0-0-13-101000;75 
0-0-13-103000;-22 
0-0-13-105000;-75 
0-0-13-107000;-124 
0-0-13-109000;-146 
0-0-13-112000;-174 
0-0-13-114000;-143 
0-0-13-116000;-129 
0-0-13-118000;-78 
0-0-13-120000;-85 
0-0-13-122000;-115 
0-0-13-124000;-135 
0-0-13-125000;-189 
0-0-13-127000;-152 
0-0-13-129000;-164 
0-0-13-131000;-61 
0-0-13-133000;-4 
0-0-13-135000;107 
0-0-13-137000;154 
0-0-13-139000;174 
0-0-13-141000;116 
0-0-13-143000;107 
0-0-13-146000;33 
0-0-13-148000;33 
0-0-13-150000;31 
0-0-13-152000;68 
0-0-13-154000;101 
0-0-13-156000;118 
0-0-13-158000;144 
0-0-13-160000;157 
0-0-13-162000;128 
0-0-13-164000;72 
0-0-13-166000;6 
0-0-13-167000;4 
0-0-13-169000;-20 
0-0-13-171000;31 
0-0-13-173000;75 
0-0-13-175000;128 
0-0-13-177000;160 
0-0-13-180000;146 
0-0-13-182000;141 
0-0-13-184000;37 
0-0-13-186000;26 
0-0-13-188000;-16 
0-0-13-190000;9 
0-0-13-192000;-4 
0-0-13-194000;56 
0-0-13-196000;80 
0-0-13-198000;120 
0-0-13-200000;129 
0-0-13-202000;85 
0-0-13-204000;31 
0-0-13-206000;19 
0-0-13-208000;-1 
0-0-13-209000;-6 
0-0-13-211000;2 
0-0-13-213000;22 
0-0-13-216000;100 
0-0-13-218000;122 
0-0-13-220000;152 
0-0-13-222000;79 
0-0-13-224000;53 
0-0-13-226000;-2 
0-0-13-228000;-1 
0-0-13-230000;0 
0-0-13-232000;21 
0-0-13-234000;45 
0-0-13-246000;3 
0-0-13-248000;-54 
0-0-13-250000;-20 
0-0-13-252000;-21 
0-0-13-254000;49 
0-0-13-256000;60 
0-0-13-258000;127 
0-0-13-260000;88 
0-0-13-262000;76 
0-0-13-264000;14 
0-0-13-266000;7 
0-0-13-268000;-25 
0-0-13-272000;16 
0-0-13-274000;41 
0-0-13-276000;75 
0-0-13-278000;100 
0-0-13-280000;82 
0-0-13-282000;61 
0-0-13-285000;29 
0-0-13-287000;-36 
0-0-13-289000;-23 
0-0-13-291000;-32 
0-0-13-292000;3 
0-0-13-294000;29 
0-0-13-296000;66 
0-0-13-298000;120 
0-0-13-300000;87 
0-0-13-302000;57 
0-0-13-304000;23 
0-0-13-306000;-44 
0-0-13-308000;-47 
0-0-13-310000;-26 
0-0-13-312000;-14 
0-0-13-314000;7 
0-0-13-316000;53 
0-0-13-319000;100 
0-0-13-321000;90 
0-0-13-323000;43 
0-0-13-325000;1 
0-0-13-327000;-54 
0-0-13-329000;-50 
0-0-13-331000;-25 
0-0-13-333000;-12 
0-0-13-334000;33 
0-0-13-336000;53 
0-0-13-338000;110 
0-0-13-340000;58 
0-0-13-342000;49 
0-0-13-344000;-23 
0-0-13-346000;-40 
0-0-13-348000;-55 
0-0-13-350000;-25 
0-0-13-353000;-1 
0-0-13-355000;45 
0-0-13-357000;109 
0-0-13-359000;129 
0-0-13-361000;96 
0-0-13-363000;43 
0-0-13-365000;4 
0-0-13-367000;-27 
0-0-13-369000;-14 
0-0-13-371000;-10 
0-0-13-373000;5 
0-0-13-374000;69 
0-0-13-376000;66 
0-0-13-378000;112 
0-0-13-380000;82 
0-0-13-382000;62 
0-0-13-384000;5 
0-0-13-387000;-23 
0-0-13-389000;-30 
0-0-13-391000;-38 
0-0-13-393000;6 
0-0-13-395000;49 
0-0-13-397000;97 
0-0-13-399000;110 
0-0-13-401000;98 
0-0-13-403000;65 
0-0-13-405000;36 
0-0-13-407000;-40 
0-0-13-409000;-36 
0-0-13-411000;-2 
0-0-13-413000;42 
0-0-13-415000;56 
0-0-13-416000;121 
0-0-13-418000;121 
0-0-13-420000;112 
0-0-13-423000;78 
0-0-13-425000;-3 
0-0-13-427000;-25 
0-0-13-429000;-37 
0-0-13-431000;-6 
0-0-13-433000;8 
0-0-13-435000;83 
0-0-13-437000;109 
0-0-13-439000;114 
0-0-13-441000;118 
0-0-13-443000;52 
0-0-13-445000;-22 
0-0-13-447000;-31 
0-0-13-459000;143 
0-0-13-461000;112 
0-0-13-463000;58 
0-0-13-465000;-9 
0-0-13-467000;-8 
0-0-13-469000;-10 
0-0-13-471000;0 
0-0-13-473000;15 
0-0-13-475000;64 
0-0-13-477000;88 
0-0-13-479000;107 
0-0-13-481000;65 
0-0-13-483000;1 
0-0-13-485000;-3 
0-0-13-487000;-33 
0-0-13-489000;-16 
0-0-13-492000;-1 
0-0-13-494000;23 
0-0-13-496000;84 
0-0-13-498000;96 
0-0-13-499000;127 
0-0-13-501000;91 
0-0-13-503000;26 
0-0-13-505000;-14 
0-0-13-507000;-41 
0-0-13-509000;-33 
0-0-13-511000;-12 
0-0-13-513000;29 
0-0-13-515000;91 
0-0-13-517000;101 
0-0-13-519000;125 
0-0-13-521000;91 
0-0-13-523000;22 
0-0-13-526000;-12 
0-0-13-528000;-29 
0-0-13-530000;-53 
0-0-13-532000;1 
0-0-13-534000;19 
0-0-13-536000;63 
0-0-13-538000;83 
0-0-13-540000;108 
0-0-13-541000;66 
0-0-13-543000;36 
0-0-13-545000;-10 
0-0-13-547000;-27 
0-0-13-549000;-47 
0-0-13-551000;3 
0-0-13-553000;34 
0-0-13-555000;81 
0-0-13-557000;104 
0-0-13-560000;137 
0-0-13-562000;78 
0-0-13-564000;39 
0-0-13-566000;-21 
0-0-13-568000;-47 
0-0-13-570000;-38 
0-0-13-572000;-2 
0-0-13-574000;45 
0-0-13-576000;31 
0-0-13-578000;117 
0-0-13-580000;99 
0-0-13-582000;101 
0-0-13-583000;19 
0-0-13-585000;-23 
0-0-13-587000;-44 
0-0-13-589000;-36 
0-0-13-591000;13 
0-0-13-594000;34 
0-0-13-596000;85 
0-0-13-598000;117 
0-0-13-600000;141 
0-0-13-602000;71 
0-0-13-604000;34 
0-0-13-606000;-19 
0-0-13-608000;-43 
0-0-13-610000;-6 
0-0-13-612000;6 
0-0-13-614000;28 
0-0-13-616000;65 
0-0-13-618000;114 
0-0-13-620000;109 
0-0-13-622000;60 
0-0-13-624000;15 
0-0-13-625000;-12 
0-0-13-627000;-24 
0-0-13-630000;-13 
0-0-13-632000;-8 
0-0-13-634000;45 
0-0-13-636000;81 
0-0-13-638000;113 
0-0-13-640000;117 
0-0-13-642000;60 
0-0-13-644000;-19 
0-0-13-646000;-23 
0-0-13-648000;-76 
0-0-13-650000;-58 
0-0-13-652000;-52 
0-0-13-654000;29 
0-0-13-656000;99 
0-0-13-658000;149 
0-0-13-670000;-21 
0-0-13-672000;10 
0-0-13-674000;37 
0-0-13-676000;96 
0-0-13-678000;125 
0-0-13-680000;96 
0-0-13-682000;62 
0-0-13-684000;40 
0-0-13-686000;-5 
0-0-13-688000;-42 
0-0-13-690000;-12 
0-0-13-692000;14 
0-0-13-694000;27 
0-0-13-699000;111 
0-0-13-701000;95 
0-0-13-703000;47 
0-0-13-705000;31 
0-0-13-707000;-42 
0-0-13-708000;-45 
0-0-13-710000;-17 
0-0-13-712000;2 
0-0-13-714000;42 
0-0-13-716000;75 
0-0-13-718000;86 
0-0-13-720000;95 
0-0-13-722000;55 
0-0-13-724000;-33 
0-0-13-726000;-47 
0-0-13-728000;-66 
0-0-13-730000;4 
0-0-13-733000;-9 
0-0-13-735000;64 
0-0-13-737000;99 
0-0-13-739000;125 
0-0-13-741000;103 
0-0-13-743000;49 
0-0-13-745000;14 
0-0-13-747000;-32 
0-0-13-749000;-37 
0-0-13-750000;0 
0-0-13-752000;-19 
0-0-13-754000;59 
0-0-13-756000;97 
0-0-13-758000;116 
0-0-13-760000;104 
0-0-13-762000;56 
0-0-13-764000;19 
0-0-13-767000;-24 
0-0-13-769000;-7 
0-0-13-771000;-38 
0-0-13-773000;18 
0-0-13-775000;45 
0-0-13-777000;97 
0-0-13-779000;121 
0-0-13-781000;84 
0-0-13-783000;40 
0-0-13-785000;-5 
0-0-13-787000;-28 
0-0-13-789000;-18 
0-0-13-791000;-44 
0-0-13-792000;32 
0-0-13-794000;28 
0-0-13-796000;105 
0-0-13-798000;92 
0-0-13-800000;64 
0-0-13-803000;46 
0-0-13-805000;-19 
0-0-13-807000;-19 
0-0-13-809000;-38 
0-0-13-811000;-30 
0-0-13-813000;22 
0-0-13-815000;41 
0-0-13-817000;72 
0-0-13-819000;98 
0-0-13-821000;84 
0-0-13-823000;62 
0-0-13-825000;1 
0-0-13-827000;-7 
0-0-13-829000;-38 
0-0-13-831000;-32 
0-0-13-833000;22 
0-0-13-834000;41 
0-0-13-837000;94 
0-0-13-839000;130 
0-0-13-841000;95 
0-0-13-843000;83 
0-0-13-845000;4 
0-0-13-847000;-25 
0-0-13-849000;-29 
0-0-13-851000;-19 
0-0-13-853000;42 
0-0-13-855000;42 
0-0-13-857000;96 
0-0-13-859000;124 
0-0-13-861000;102 
0-0-13-863000;31 
0-0-13-865000;-4 
0-0-13-867000;-39 
0-0-13-869000;-26 
0-0-13-872000;-28 
0-0-13-881000;91 
0-0-13-883000;24 
0-0-13-885000;-17 
0-0-13-887000;-67 
0-0-13-889000;-48 
0-0-13-891000;-30 
0-0-13-893000;-4 
0-0-13-895000;55 
0-0-13-897000;103 
0-0-13-899000;129 
0-0-13-901000;81 
0-0-13-903000;17 
0-0-13-906000;-35 
0-0-13-908000;-13 
0-0-13-910000;-14 
0-0-13-912000;-6 
0-0-13-914000;64 
0-0-13-916000;77 
0-0-13-917000;95 
0-0-13-919000;129 
0-0-13-921000;81 
0-0-13-923000;25 
0-0-13-925000;1 
0-0-13-927000;-24 
0-0-13-929000;-50 
0-0-13-931000;-5 
0-0-13-933000;8 
0-0-13-935000;39 
0-0-13-937000;109 
0-0-13-940000;83 
0-0-13-942000;59 
0-0-13-944000;21 
0-0-13-946000;-45 
0-0-13-948000;-64 
0-0-13-950000;-45 
0-0-13-952000;-22 
0-0-13-954000;-5 
0-0-13-956000;55 
0-0-13-958000;73 
0-0-13-959000;90 
0-0-13-961000;62 
0-0-13-963000;38 
0-0-13-965000;-19 
0-0-13-967000;-51 
0-0-13-969000;-22 
0-0-13-971000;-5 
0-0-13-974000;25 
0-0-13-976000;73 
0-0-13-978000;106 
0-0-13-980000;120 
0-0-13-982000;97 
0-0-13-984000;39 
0-0-13-986000;-4 
0-0-13-988000;-23 
0-0-13-990000;-35 
0-0-13-992000;26 
0-0-13-994000;31 
0-0-13-996000;43 
0-0-13-998000;101 
0-0-13-999000;112 
0-0-14-001000;56 
0-0-14-003000;50 
0-0-14-005000;-36 
0-0-14-007000;-33 
0-0-14-010000;-15 
0-0-14-012000;3 
0-0-14-014000;20 
0-0-14-016000;57 
0-0-14-018000;112 
0-0-14-020000;98 
0-0-14-022000;62 
0-0-14-024000;19 
0-0-14-026000;-18 
0-0-14-028000;-11 
0-0-14-030000;-16 
0-0-14-032000;-10 
0-0-14-034000;44 
0-0-14-036000;75 
0-0-14-038000;113 
0-0-14-040000;111 
0-0-14-041000;90 
0-0-14-044000;18 
0-0-14-046000;-5 
0-0-14-048000;-13 
0-0-14-050000;-40 
0-0-14-052000;-18 
0-0-14-054000;53 
0-0-14-056000;85 
0-0-14-058000;125 
0-0-14-060000;101 
0-0-14-062000;59 
0-0-14-064000;5 
0-0-14-066000;-27 
0-0-14-068000;-68 
0-0-14-070000;-86 
0-0-14-072000;-77 
0-0-14-074000;-77 
0-0-14-076000;-45 
0-0-14-079000;-32 
0-0-14-081000;-74 
0-0-14-092000;-182 
0-0-14-094000;-112 
0-0-14-096000;-8 
0-0-14-098000;47 
0-0-14-100000;69 
0-0-14-102000;88 
0-0-14-104000;83 
0-0-14-106000;17 
0-0-14-108000;29 
0-0-14-110000;44 
0-0-14-113000;65 
0-0-14-115000;104 
0-0-14-117000;140 
0-0-14-119000;157 
0-0-14-123000;123 
0-0-14-124000;34 
0-0-14-126000;8 
0-0-14-128000;11 
0-0-14-130000;9 
0-0-14-132000;52 
0-0-14-134000;107 
0-0-14-136000;103 
0-0-14-138000;167 
0-0-14-140000;130 
0-0-14-142000;110 
0-0-14-144000;36 
0-0-14-147000;1 
0-0-14-149000;-10 
0-0-14-151000;11 
0-0-14-153000;35 
0-0-14-155000;68 
0-0-14-157000;123 
0-0-14-159000;142 
0-0-14-161000;125 
0-0-14-163000;84 
0-0-14-165000;17 
0-0-14-166000;-4 
0-0-14-168000;10 
0-0-14-170000;-5 
0-0-14-172000;25 
0-0-14-174000;78 
0-0-14-176000;98 
0-0-14-178000;129 
0-0-14-181000;127 
0-0-14-183000;50 
0-0-14-185000;19 
0-0-14-187000;-11 
0-0-14-189000;-15 
0-0-14-191000;-19 
0-0-14-193000;22 
0-0-14-195000;47 
0-0-14-197000;111 
0-0-14-199000;125 
0-0-14-201000;127 
0-0-14-203000;55 
0-0-14-205000;3 
0-0-14-207000;17 
0-0-14-208000;-23 
0-0-14-210000;1 
0-0-14-212000;9 
0-0-14-214000;81 
0-0-14-217000;95 
0-0-14-219000;118 
0-0-14-221000;87 
0-0-14-223000;52 
0-0-14-225000;15 
0-0-14-227000;-15 
0-0-14-229000;-39 
0-0-14-231000;-18 
0-0-14-233000;20 
0-0-14-235000;71 
0-0-14-237000;69 
0-0-14-239000;133 
0-0-14-241000;65 
0-0-14-243000;34 
0-0-14-245000;11 
0-0-14-247000;-47 
0-0-14-249000;-33 
0-0-14-251000;-17 
0-0-14-253000;15 
0-0-14-255000;52 
0-0-14-257000;73 
0-0-14-259000;112 
0-0-14-261000;68 
0-0-14-263000;37 
0-0-14-265000;-10 
0-0-14-267000;-75 
0-0-14-269000;-41 
0-0-14-271000;-18 
0-0-14-273000;8 
0-0-14-275000;30 
0-0-14-277000;81 
0-0-14-279000;95 
0-0-14-281000;73 
0-0-14-283000;14 
0-0-14-286000;-26 
0-0-14-288000;-36 
0-0-14-290000;-56 
0-0-14-291000;-5 
0-0-14-293000;4 
0-0-14-305000;-35 
0-0-14-307000;-37 
0-0-14-309000;-50 
0-0-14-311000;-2 
0-0-14-313000;24 
0-0-14-315000;35 
0-0-14-317000;88 
0-0-14-320000;117 
0-0-14-322000;31 
0-0-14-324000;24 
0-0-14-326000;-31 
0-0-14-328000;-50 
0-0-14-330000;-44 
0-0-14-332000;-18 
0-0-14-333000;12 
0-0-14-335000;68 
0-0-14-337000;110 
0-0-14-339000;98 
0-0-14-341000;82 
0-0-14-343000;18 
0-0-14-345000;6 
0-0-14-347000;-24 
0-0-14-349000;-47 
0-0-14-351000;-22 
0-0-14-354000;33 
0-0-14-356000;59 
0-0-14-358000;125 
0-0-14-360000;116 
0-0-14-362000;72 
0-0-14-364000;32 
0-0-14-366000;17 
0-0-14-368000;-38 
0-0-14-370000;-34 
0-0-14-372000;3 
0-0-14-374000;34 
0-0-14-375000;77 
0-0-14-377000;112 
0-0-14-379000;119 
0-0-14-381000;79 
0-0-14-383000;36 
0-0-14-385000;-14 
0-0-14-388000;-17 
0-0-14-390000;-19 
0-0-14-392000;3 
0-0-14-394000;43 
0-0-14-396000;69 
0-0-14-398000;103 
0-0-14-400000;103 
0-0-14-402000;70 
0-0-14-404000;55 
0-0-14-406000;-26 
0-0-14-408000;-39 
0-0-14-410000;-13 
0-0-14-412000;6 
0-0-14-414000;33 
0-0-14-416000;76 
0-0-14-417000;112 
0-0-14-419000;92 
0-0-14-421000;93 
0-0-14-424000;24 
0-0-14-426000;-33 
0-0-14-428000;-34 
0-0-14-430000;-2 
0-0-14-432000;-9 
0-0-14-434000;39 
0-0-14-436000;94 
0-0-14-438000;99 
0-0-14-440000;109 
0-0-14-442000;89 
0-0-14-444000;-5 
0-0-14-446000;-29 
0-0-14-448000;-31 
0-0-14-450000;-25 
0-0-14-452000;-9 
0-0-14-454000;36 
0-0-14-456000;70 
0-0-14-458000;125 
0-0-14-460000;103 
0-0-14-462000;55 
0-0-14-464000;28 
0-0-14-466000;-22 
0-0-14-468000;-26 
0-0-14-470000;-26 
0-0-14-472000;8 
0-0-14-474000;24 
0-0-14-476000;86 
0-0-14-478000;113 
0-0-14-480000;113 
0-0-14-482000;55 
0-0-14-484000;9 
0-0-14-486000;-5 
0-0-14-488000;-41 
0-0-14-490000;-47 
0-0-14-493000;17 
0-0-14-495000;54 
0-0-14-497000;85 
0-0-14-499000;95 
0-0-14-500000;115 
0-0-14-502000;52 
0-0-14-504000;12 
0-0-14-516000;85 
0-0-14-518000;125 
0-0-14-520000;94 
0-0-14-522000;73 
0-0-14-524000;20 
0-0-14-527000;-38 
0-0-14-529000;-47 
0-0-14-531000;6 
0-0-14-533000;6 
0-0-14-535000;59 
0-0-14-537000;83 
0-0-14-539000;116 
0-0-14-541000;100 
0-0-14-542000;89 
0-0-14-544000;0 
0-0-14-548000;-24 
0-0-14-550000;-12 
0-0-14-552000;21 
0-0-14-554000;42 
0-0-14-556000;101 
0-0-14-558000;120 
0-0-14-561000;106 
0-0-14-563000;55 
0-0-14-565000;9 
0-0-14-567000;-6 
0-0-14-569000;-32 
0-0-14-571000;-31 
0-0-14-573000;8 
0-0-14-575000;41 
0-0-14-577000;104 
0-0-14-579000;124 
0-0-14-581000;105 
0-0-14-583000;40 
0-0-14-584000;-1 
0-0-14-586000;-12 
0-0-14-588000;-30 
0-0-14-590000;-15 
0-0-14-592000;17 
0-0-14-594000;61 
0-0-14-597000;89 
0-0-14-599000;119 
0-0-14-601000;102 
0-0-14-603000;55 
0-0-14-605000;14 
0-0-14-607000;-9 
0-0-14-609000;-40 
0-0-14-611000;4 
0-0-14-613000;27 
0-0-14-615000;44 
0-0-14-617000;85 
0-0-14-619000;137 
0-0-14-621000;82 
0-0-14-623000;58 
0-0-14-624000;-11 
0-0-14-626000;-12 
0-0-14-628000;-44 
0-0-14-631000;1 
0-0-14-633000;36 
0-0-14-635000;62 
0-0-14-637000;103 
0-0-14-639000;105 
0-0-14-641000;95 
0-0-14-643000;53 
0-0-14-645000;6 
0-0-14-647000;-33 
0-0-14-649000;-21 
0-0-14-651000;6 
0-0-14-653000;42 
0-0-14-655000;60 
0-0-14-657000;88 
0-0-14-659000;108 
0-0-14-661000;106 
0-0-14-663000;58 
0-0-14-666000;14 
0-0-14-667000;-50 
0-0-14-669000;-26 
0-0-14-671000;1 
0-0-14-673000;45 
0-0-14-675000;63 
0-0-14-677000;91 
0-0-14-679000;105 
0-0-14-681000;97 
0-0-14-683000;72 
0-0-14-685000;4 
0-0-14-687000;-33 
0-0-14-689000;-29 
0-0-14-691000;2 
0-0-14-693000;18 
0-0-14-695000;66 
0-0-14-697000;96 
0-0-14-700000;111 
0-0-14-702000;93 
0-0-14-704000;65 
0-0-14-706000;-31 
0-0-14-708000;-40 
0-0-14-709000;-27 
0-0-14-711000;16 
0-0-14-713000;13 
0-0-14-715000;58 
0-0-14-717000;114 
0-0-14-727000;-22 
0-0-14-729000;-3 
0-0-14-731000;-15 
0-0-14-734000;18 
0-0-14-736000;68 
0-0-14-738000;131 
0-0-14-740000;117 
0-0-14-742000;85 
0-0-14-744000;32 
0-0-14-746000;-12 
0-0-14-748000;-11 
0-0-14-749000;-3 
0-0-14-751000;-27 
0-0-14-753000;11 
0-0-14-755000;67 
0-0-14-757000;140 
0-0-14-759000;104 
0-0-14-761000;73 
0-0-14-763000;42 
0-0-14-765000;6 
0-0-14-768000;-28 
0-0-14-770000;-22 
0-0-14-772000;5 
0-0-14-774000;27 
0-0-14-776000;72 
0-0-14-778000;111 
0-0-14-780000;129 
0-0-14-782000;84 
0-0-14-784000;44 
0-0-14-786000;-11 
0-0-14-788000;-21 
0-0-14-790000;-45 
0-0-14-791000;-6 
0-0-14-793000;34 
0-0-14-795000;89 
0-0-14-797000;92 
0-0-14-799000;104 
0-0-14-801000;77 
0-0-14-804000;46 
0-0-14-806000;-19 
0-0-14-808000;-29 
0-0-14-810000;-40 
0-0-14-812000;5 
0-0-14-814000;52 
0-0-14-816000;70 
0-0-14-818000;117 
0-0-14-820000;92 
0-0-14-822000;91 
0-0-14-824000;43 
0-0-14-826000;-21 
0-0-14-828000;-50 
0-0-14-830000;-19 
0-0-14-832000;11 
0-0-14-833000;42 
0-0-14-835000;45 
0-0-14-838000;107 
0-0-14-840000;115 
0-0-14-842000;90 
0-0-14-844000;-1 
0-0-14-846000;-30 
0-0-14-848000;-34 
0-0-14-850000;2 
0-0-14-852000;5 
0-0-14-854000;30 
0-0-14-856000;80 
0-0-14-858000;129 
0-0-14-860000;124 
0-0-14-862000;52 
0-0-14-864000;23 
0-0-14-866000;-17 
0-0-14-868000;-25 
0-0-14-870000;-37 
0-0-14-873000;-19 
0-0-14-874000;15 
0-0-14-876000;58 
0-0-14-878000;108 
0-0-14-880000;117 
0-0-14-882000;39 
0-0-14-884000;-9 
0-0-14-886000;-38 
0-0-14-888000;-19 
0-0-14-890000;-50 
0-0-14-892000;-25 
0-0-14-894000;30 
0-0-14-896000;75 
0-0-14-898000;90 
0-0-14-900000;88 
0-0-14-902000;58 
0-0-14-904000;8 
0-0-14-907000;-17 
0-0-14-909000;-39 
0-0-14-911000;-16 
0-0-14-913000;-3 
0-0-14-915000;51 
0-0-14-916000;79 
0-0-14-918000;110 
0-0-14-920000;78 
0-0-14-922000;73 
0-0-14-924000;1 
0-0-14-926000;-8 
0-0-14-938000;105 
0-0-14-941000;102 
0-0-14-943000;69 
0-0-14-945000;16 
0-0-14-947000;-35 
0-0-14-949000;-24 
0-0-14-951000;-11 
0-0-14-953000;17 
0-0-14-955000;34 
0-0-14-957000;94 
0-0-14-958000;119 
0-0-14-960000;96 
0-0-14-962000;47 
0-0-14-964000;10 
0-0-14-966000;-22 
0-0-14-968000;-48 
0-0-14-972000;31 
0-0-14-975000;15 
0-0-14-977000;77 
0-0-14-979000;115 
0-0-14-981000;107 
0-0-14-983000;75 
0-0-14-985000;2 
0-0-14-987000;-34 
0-0-14-989000;-16 
0-0-14-991000;8 
0-0-14-993000;9 
0-0-14-995000;62 
0-0-14-997000;85 
0-0-14-999000;129 
0-0-15-000000;69 
0-0-15-002000;29 
0-0-15-004000;-49 
0-0-15-006000;-110 
0-0-15-008000;-119 
0-0-15-011000;-119 
0-0-15-013000;-147 
0-0-15-015000;-103 
0-0-15-017000;-83 
0-0-15-019000;-68 
0-0-15-021000;-95 
0-0-15-023000;-130 
0-0-15-025000;-199 
0-0-15-027000;-193 
0-0-15-029000;-187 
0-0-15-031000;-143 
0-0-15-033000;-47 
0-0-15-035000;2 
0-0-15-037000;111 
0-0-15-039000;138 
0-0-15-041000;130 
0-0-15-042000;116 
0-0-15-045000;52 
0-0-15-047000;6 
0-0-15-049000;25 
0-0-15-051000;37 
0-0-15-053000;58 
0-0-15-055000;91 
0-0-15-057000;110 
0-0-15-059000;134 
0-0-15-061000;108 
0-0-15-063000;89 
0-0-15-065000;29 
0-0-15-067000;-2 
0-0-15-069000;-13 
0-0-15-071000;31 
0-0-15-073000;57 
0-0-15-075000;106 
0-0-15-077000;114 
0-0-15-080000;121 
0-0-15-082000;127 
0-0-15-083000;66 
0-0-15-085000;32 
0-0-15-087000;-13 
0-0-15-089000;14 
0-0-15-091000;20 
0-0-15-093000;54 
0-0-15-095000;52 
0-0-15-097000;112 
0-0-15-099000;126 
0-0-15-101000;114 
0-0-15-103000;69 
0-0-15-105000;6 
0-0-15-107000;-10 
0-0-15-109000;-1 
0-0-15-111000;21 
0-0-15-114000;33 
0-0-15-116000;79 
0-0-15-118000;94 
0-0-15-120000;135 
0-0-15-122000;102 
0-0-15-124000;64 
0-0-15-125000;-10 
0-0-15-127000;-7 
0-0-15-129000;-33 
0-0-15-131000;1 
0-0-15-133000;9 
0-0-15-135000;70 
0-0-15-137000;97 
0-0-15-139000;124 
0-0-15-152000;-12 
0-0-15-154000;23 
0-0-15-156000;64 
0-0-15-158000;106 
0-0-15-160000;100 
0-0-15-162000;81 
0-0-15-164000;29 
0-0-15-166000;6 
0-0-15-167000;-20 
0-0-15-169000;-27 
0-0-15-171000;3 
0-0-15-173000;18 
0-0-15-175000;90 
0-0-15-177000;83 
0-0-15-179000;115 
0-0-15-181000;69 
0-0-15-184000;8 
0-0-15-186000;-4 
0-0-15-188000;-36 
0-0-15-190000;-32 
0-0-15-192000;-15 
0-0-15-194000;35 
0-0-15-196000;59 
0-0-15-198000;85 
0-0-15-200000;81 
0-0-15-202000;73 
0-0-15-204000;17 
0-0-15-206000;-3 
0-0-15-208000;-43 
0-0-15-209000;-39 
0-0-15-211000;-22 
0-0-15-213000;29 
0-0-15-215000;45 
0-0-15-218000;80 
0-0-15-220000;87 
0-0-15-222000;65 
0-0-15-224000;15 
0-0-15-226000;-39 
0-0-15-228000;-56 
0-0-15-230000;-57 
0-0-15-232000;-17 
0-0-15-234000;5 
0-0-15-236000;28 
0-0-15-238000;95 
0-0-15-240000;67 
0-0-15-242000;78 
0-0-15-244000;-21 
0-0-15-246000;-24 
0-0-15-248000;-59 
0-0-15-249000;-31 
0-0-15-252000;-3 
0-0-15-254000;15 
0-0-15-256000;53 
0-0-15-258000;90 
0-0-15-260000;83 
0-0-15-262000;49 
0-0-15-264000;11 
0-0-15-266000;-24 
0-0-15-268000;-67 
0-0-15-270000;-22 
0-0-15-272000;-5 
0-0-15-274000;17 
0-0-15-276000;51 
0-0-15-278000;106 
0-0-15-280000;95 
0-0-15-282000;56 
0-0-15-284000;4 
0-0-15-287000;-8 
0-0-15-289000;-64 
0-0-15-291000;-7 
0-0-15-292000;3 
0-0-15-294000;43 
0-0-15-296000;62 
0-0-15-298000;131 
0-0-15-300000;77 
0-0-15-302000;73 
0-0-15-304000;11 
0-0-15-306000;1 
0-0-15-308000;-33 
0-0-15-310000;-13 
0-0-15-312000;5 
0-0-15-314000;41 
0-0-15-316000;83 
0-0-15-318000;123 
0-0-15-321000;85 
0-0-15-323000;72 
0-0-15-325000;24 
0-0-15-327000;5 
0-0-15-329000;-13 
0-0-15-331000;-2 
0-0-15-333000;37 
0-0-15-334000;66 
0-0-15-336000;106 
0-0-15-338000;139 
0-0-15-340000;120 
0-0-15-342000;108 
0-0-15-344000;51 
0-0-15-346000;47 
0-0-15-348000;1 
0-0-15-350000;33 
0-0-15-363000;100 
0-0-15-365000;42 
0-0-15-367000;7 
0-0-15-369000;3 
0-0-15-371000;13 
0-0-15-373000;54 
0-0-15-374000;46 
0-0-15-376000;120 
0-0-15-378000;113 
0-0-15-380000;126 
0-0-15-382000;91 
0-0-15-384000;29 
0-0-15-386000;9 
0-0-15-388000;-20 
0-0-15-391000;32 
0-0-15-393000;33 
0-0-15-395000;72 
0-0-15-399000;125 
0-0-15-401000;117 
0-0-15-403000;79 
0-0-15-405000;13 
0-0-15-407000;-1 
0-0-15-409000;-21 
0-0-15-411000;19 
0-0-15-413000;39 
0-0-15-415000;47 
0-0-15-416000;107 
0-0-15-418000;110 
0-0-15-420000;94 
0-0-15-422000;68 
0-0-15-425000;18 
0-0-15-427000;-17 
0-0-15-429000;5 
0-0-15-431000;-15 
0-0-15-433000;35 
0-0-15-435000;45 
0-0-15-437000;117 
0-0-15-439000;128 
0-0-15-441000;97 
0-0-15-443000;71 
0-0-15-445000;5 
0-0-15-447000;6 
0-0-15-449000;-16 
0-0-15-451000;-8 
0-0-15-453000;33 
0-0-15-455000;52 
0-0-15-457000;125 
0-0-15-459000;89 
0-0-15-461000;98 
0-0-15-463000;46 
0-0-15-465000;16 
0-0-15-467000;-47 
0-0-15-469000;-10 
0-0-15-471000;-6 
0-0-15-473000;40 
0-0-15-475000;67 
0-0-15-477000;107 
0-0-15-479000;107 
0-0-15-481000;103 
0-0-15-483000;68 
0-0-15-485000;15 
0-0-15-487000;-19 
0-0-15-489000;-37 
0-0-15-491000;-2 
0-0-15-494000;26 
0-0-15-496000;78 
0-0-15-498000;103 
0-0-15-499000;114 
0-0-15-501000;87 
0-0-15-503000;79 
0-0-15-505000;-17 
0-0-15-507000;-12 
0-0-15-509000;-18 
0-0-15-511000;9 
0-0-15-513000;49 
0-0-15-515000;45 
0-0-15-517000;110 
0-0-15-519000;101 
0-0-15-521000;110 
0-0-15-523000;33 
0-0-15-525000;20 
0-0-15-528000;-24 
0-0-15-530000;0 
0-0-15-532000;-9 
0-0-15-534000;57 
0-0-15-536000;41 
0-0-15-538000;116 
0-0-15-540000;108 
0-0-15-541000;111 
0-0-15-543000;37 
0-0-15-545000;11 
0-0-15-547000;-18 
0-0-15-549000;7 
0-0-15-551000;12 
0-0-15-553000;32 
0-0-15-555000;72 
0-0-15-557000;102 
0-0-15-559000;134 
0-0-15-562000;86 
0-0-15-564000;72 
0-0-15-578000;108 
0-0-15-580000;133 
0-0-15-582000;71 
0-0-15-583000;47 
0-0-15-585000;0 
0-0-15-587000;-7 
0-0-15-589000;-31 
0-0-15-591000;3 
0-0-15-593000;28 
0-0-15-595000;74 
0-0-15-598000;106 
0-0-15-600000;100 
0-0-15-602000;95 
0-0-15-604000;25 
0-0-15-606000;30 
0-0-15-608000;-42 
0-0-15-610000;-17 
0-0-15-612000;-14 
0-0-15-614000;39 
0-0-15-616000;48 
0-0-15-618000;100 
0-0-15-620000;106 
0-0-15-622000;75 
0-0-15-624000;9 
0-0-15-625000;16 
0-0-15-627000;-26 
0-0-15-629000;-23 
0-0-15-632000;18 
0-0-15-634000;42 
0-0-15-636000;60 
0-0-15-638000;107 
0-0-15-640000;88 
0-0-15-642000;68 
0-0-15-644000;28 
0-0-15-646000;-10 
0-0-15-648000;-28 
0-0-15-650000;-43 
0-0-15-652000;20 
0-0-15-654000;17 
0-0-15-656000;62 
0-0-15-658000;100 
0-0-15-660000;102 
0-0-15-662000;65 
0-0-15-664000;-14 
0-0-15-666000;-28 
0-0-15-668000;-51 
0-0-15-670000;-32 
0-0-15-672000;1 
0-0-15-674000;3 
0-0-15-676000;58 
0-0-15-678000;78 
0-0-15-680000;75 
0-0-15-682000;60 
0-0-15-684000;-10 
0-0-15-686000;-49 
0-0-15-688000;-51 
0-0-15-690000;-41 
0-0-15-692000;-12 
0-0-15-694000;5 
0-0-15-696000;52 
0-0-15-698000;66 
0-0-15-701000;76 
0-0-15-703000;28 
0-0-15-705000;-5 
0-0-15-707000;-56 
0-0-15-708000;-60 
0-0-15-710000;-40 
0-0-15-712000;-41 
0-0-15-714000;5 
0-0-15-716000;39 
0-0-15-718000;100 
0-0-15-720000;47 
0-0-15-722000;54 
0-0-15-724000;5 
0-0-15-726000;-31 
0-0-15-728000;-34 
0-0-15-730000;-16 
0-0-15-732000;-9 
0-0-15-735000;41 
0-0-15-737000;112 
0-0-15-739000;102 
0-0-15-741000;113 
0-0-15-743000;69 
0-0-15-745000;49 
0-0-15-747000;-6 
0-0-15-749000;-20 
0-0-15-750000;10 
0-0-15-752000;19 
0-0-15-754000;63 
0-0-15-756000;120 
0-0-15-758000;109 
0-0-15-760000;104 
0-0-15-762000;83 
0-0-15-764000;41 
0-0-15-766000;5 
0-0-15-769000;-16 
0-0-15-771000;23 
0-0-15-773000;26 
0-0-15-775000;82 
0-0-15-777000;87 
0-0-15-787000;-11 
0-0-15-789000;-10 
0-0-15-791000;-7 
0-0-15-792000;36 
0-0-15-794000;55 
0-0-15-796000;69 
0-0-15-798000;130 
0-0-15-800000;87 
0-0-15-802000;55 
0-0-15-805000;-4 
0-0-15-807000;-31 
0-0-15-809000;-27 
0-0-15-811000;-10 
0-0-15-813000;-11 
0-0-15-815000;62 
0-0-15-817000;90 
0-0-15-819000;119 
0-0-15-821000;127 
0-0-15-825000;27 
0-0-15-827000;-44 
0-0-15-829000;-18 
0-0-15-831000;-43 
0-0-15-833000;-52 
0-0-15-834000;-33 
0-0-15-836000;-20 
0-0-15-839000;-22 
0-0-15-841000;-56 
0-0-15-843000;-135 
0-0-15-845000;-171 
0-0-15-847000;-220 
0-0-15-849000;-207 
0-0-15-851000;-235 
0-0-15-853000;-186 
0-0-15-855000;-138 
0-0-15-857000;-84 
0-0-15-859000;-32 
0-0-15-861000;-19 
0-0-15-863000;7 
0-0-15-865000;-23 
0-0-15-867000;14 
0-0-15-869000;7 
0-0-15-871000;42 
0-0-15-874000;80 
0-0-15-875000;126 
0-0-15-877000;135 
0-0-15-879000;159 
0-0-15-881000;140 
0-0-15-883000;91 
0-0-15-885000;44 
0-0-15-887000;31 
0-0-15-889000;-10 
0-0-15-891000;22 
0-0-15-893000;70 
0-0-15-895000;94 
0-0-15-897000;124 
0-0-15-899000;143 
0-0-15-901000;124 
0-0-15-903000;77 
0-0-15-905000;45 
0-0-15-908000;21 
0-0-15-910000;4 
0-0-15-912000;33 
0-0-15-914000;61 
0-0-15-916000;94 
0-0-15-917000;118 
0-0-15-919000;142 
0-0-15-921000;114 
0-0-15-923000;82 
0-0-15-925000;18 
0-0-15-927000;-5 
0-0-15-929000;-1 
0-0-15-931000;2 
0-0-15-933000;59 
0-0-15-935000;39 
0-0-15-937000;97 
0-0-15-939000;85 
0-0-15-942000;112 
0-0-15-944000;31 
0-0-15-946000;52 
0-0-15-948000;-14 
0-0-15-950000;0 
0-0-15-952000;12 
0-0-15-954000;37 
0-0-15-956000;58 
0-0-15-958000;104 
0-0-15-959000;115 
0-0-15-961000;100 
0-0-15-963000;47 
0-0-15-965000;-5 
0-0-15-967000;-9 
0-0-15-969000;-28 
0-0-15-971000;34 
0-0-15-973000;5 
0-0-15-975000;64 
0-0-15-978000;66 
0-0-15-980000;116 
0-0-15-982000;41 
0-0-15-984000;25 
0-0-15-986000;-27 
0-0-15-988000;-29 
0-0-15-999000;91 
0-0-16-001000;71 
0-0-16-003000;22 
0-0-16-005000;-23 
0-0-16-007000;-24 
0-0-16-009000;-62 
0-0-16-012000;-18 
0-0-16-014000;-6 
0-0-16-016000;49 
0-0-16-018000;76 
0-0-16-020000;70 
0-0-16-022000;47 
0-0-16-024000;17 
0-0-16-026000;-20 
0-0-16-028000;-51 
0-0-16-030000;-44 
0-0-16-032000;-13 
0-0-16-034000;18 
0-0-16-036000;49 
0-0-16-038000;83 
0-0-16-040000;91 
0-0-16-041000;39 
0-0-16-043000;15 
0-0-16-046000;-72 
0-0-16-048000;-31 
0-0-16-050000;-56 
0-0-16-052000;-16 
0-0-16-054000;-6 
0-0-16-056000;55 
0-0-16-058000;83 
0-0-16-060000;95 
0-0-16-062000;63 
0-0-16-064000;-4 
0-0-16-066000;-46 
0-0-16-068000;-84 
0-0-16-070000;-86 
0-0-16-072000;-36 
0-0-16-074000;-39 
0-0-16-076000;1 
0-0-16-078000;59 
0-0-16-081000;88 
0-0-16-083000;55 
0-0-16-084000;25 
0-0-16-086000;-7 
0-0-16-088000;-38 
0-0-16-090000;-16 
0-0-16-092000;-9 
0-0-16-094000;9 
0-0-16-096000;55 
0-0-16-098000;90 
0-0-16-100000;42 
0-0-16-102000;3 
0-0-16-104000;-58 
0-0-16-106000;-101 
0-0-16-108000;-137 
0-0-16-110000;-70 
0-0-16-112000;-52 
0-0-16-115000;50 
0-0-16-117000;53 
0-0-16-119000;94 
0-0-16-121000;72 
0-0-16-123000;33 
0-0-16-124000;-20 
0-0-16-126000;-40 
0-0-16-128000;-19 
0-0-16-130000;-53 
0-0-16-132000;-35 
0-0-16-134000;6 
0-0-16-136000;61 
0-0-16-138000;62 
0-0-16-140000;62 
0-0-16-142000;5 
0-0-16-144000;-69 
0-0-16-146000;-103 
0-0-16-149000;-114 
0-0-16-151000;-122 
0-0-16-153000;-37 
0-0-16-155000;31 
0-0-16-157000;112 
0-0-16-159000;130 
0-0-16-161000;86 
0-0-16-163000;59 
0-0-16-165000;16 
0-0-16-166000;0 
0-0-16-168000;-30 
0-0-16-170000;-40 
0-0-16-172000;-22 
0-0-16-174000;-11 
0-0-16-176000;-20 
0-0-16-178000;-57 
0-0-16-180000;-64 
0-0-16-182000;-57 
0-0-16-185000;-13 
0-0-16-187000;-31 
0-0-16-189000;52 
0-0-16-191000;18 
0-0-16-193000;40 
0-0-16-195000;95 
0-0-16-197000;76 
0-0-16-199000;88 
0-0-16-210000;-61 
0-0-16-212000;-13 
0-0-16-214000;-13 
0-0-16-216000;-8 
0-0-16-219000;48 
0-0-16-221000;155 
0-0-16-223000;29 
0-0-16-225000;-57 
0-0-16-227000;-93 
0-0-16-229000;-84 
0-0-16-231000;-86 
0-0-16-233000;-143 
0-0-16-235000;-57 
0-0-16-237000;19 
0-0-16-239000;44 
0-0-16-241000;50 
0-0-16-243000;-29 
0-0-16-245000;-59 
0-0-16-247000;-73 
0-0-16-250000;-24 
0-0-16-253000;-5 
0-0-16-255000;1 
0-0-16-257000;-28 
0-0-16-259000;-3 
0-0-16-261000;-24 
0-0-16-263000;-6 
0-0-16-265000;4 
0-0-16-267000;-40 
0-0-16-269000;-64 
0-0-16-271000;74 
0-0-16-273000;0 
0-0-16-275000;17 
0-0-16-277000;103 
0-0-16-279000;129 
0-0-16-281000;106 
0-0-16-283000;97 
0-0-16-285000;139 
0-0-16-288000;-15 
0-0-16-290000;-160 
0-0-16-291000;-197 
0-0-16-293000;-256 
0-0-16-295000;-151 
0-0-16-297000;183 
0-0-16-299000;264 
0-0-16-301000;230 
0-0-16-303000;54 
0-0-16-305000;-203 
0-0-16-307000;-328 
0-0-16-309000;-349 
0-0-16-311000;-302 
0-0-16-313000;-81 
0-0-16-315000;108 
0-0-16-317000;214 
0-0-16-319000;214 
0-0-16-322000;30 
0-0-16-324000;15 
0-0-16-326000;-40 
0-0-16-328000;38 
0-0-16-330000;10 
0-0-16-332000;128 
0-0-16-333000;167 
0-0-16-335000;182 
0-0-16-337000;190 
0-0-16-339000;196 
0-0-16-341000;111 
0-0-16-343000;63 
0-0-16-345000;-29 
0-0-16-347000;-75 
0-0-16-349000;-138 
0-0-16-351000;-184 
0-0-16-353000;-5 
0-0-16-356000;61 
0-0-16-358000;-45 
0-0-16-360000;-156 
0-0-16-362000;-186 
0-0-16-364000;-204 
0-0-16-366000;-220 
0-0-16-368000;-65 
0-0-16-370000;120 
0-0-16-372000;135 
0-0-16-374000;179 
0-0-16-375000;185 
0-0-16-377000;271 
0-0-16-379000;253 
0-0-16-381000;217 
0-0-16-383000;126 
0-0-16-385000;69 
0-0-16-387000;5 
0-0-16-389000;4 
0-0-16-392000;-61 
0-0-16-394000;34 
0-0-16-396000;44 
0-0-16-398000;283 
0-0-16-400000;306 
0-0-16-402000;230 
0-0-16-404000;190 
0-0-16-406000;140 
0-0-16-408000;35 
0-0-16-410000;-43 
0-0-16-412000;-73 
0-0-16-423000;105 
0-0-16-426000;86 
0-0-16-428000;81 
0-0-16-430000;102 
0-0-16-432000;51 
0-0-16-434000;-60 
0-0-16-436000;-97 
0-0-16-438000;-72 
0-0-16-440000;54 
0-0-16-442000;232 
0-0-16-444000;387 
0-0-16-446000;373 
0-0-16-448000;254 
0-0-16-450000;172 
0-0-16-452000;136 
0-0-16-454000;162 
0-0-16-456000;205 
0-0-16-458000;187 
0-0-16-460000;218 
0-0-16-462000;208 
0-0-16-464000;92 
0-0-16-466000;58 
0-0-16-468000;143 
0-0-16-470000;138 
0-0-16-472000;124 
0-0-16-474000;106 
0-0-16-476000;85 
0-0-16-478000;36 
0-0-16-480000;36 
0-0-16-482000;131 
0-0-16-484000;193 
0-0-16-486000;143 
0-0-16-488000;119 
0-0-16-490000;164 
0-0-16-492000;170 
0-0-16-495000;149 
0-0-16-497000;150 
0-0-16-499000;99 
0-0-16-500000;-10 
0-0-16-502000;-12 
0-0-16-504000;-40 
0-0-16-506000;-17 
0-0-16-508000;59 
0-0-16-510000;121 
0-0-16-512000;74 
0-0-16-514000;48 
0-0-16-516000;-13 
0-0-16-518000;-100 
0-0-16-520000;-112 
0-0-16-522000;-30 
0-0-16-524000;32 
0-0-16-526000;87 
0-0-16-529000;83 
0-0-16-531000;66 
0-0-16-533000;83 
0-0-16-535000;74 
0-0-16-537000;91 
0-0-16-539000;82 
0-0-16-541000;69 
0-0-16-542000;66 
0-0-16-544000;17 
0-0-16-546000;2 
0-0-16-548000;-32 
0-0-16-550000;-52 
0-0-16-552000;-47 
0-0-16-554000;-37 
0-0-16-556000;-57 
0-0-16-558000;-114 
0-0-16-560000;-204 
0-0-16-562000;-268 
0-0-16-565000;-246 
0-0-16-567000;-171 
0-0-16-569000;-147 
0-0-16-571000;-78 
0-0-16-573000;-99 
0-0-16-575000;-74 
0-0-16-577000;-65 
0-0-16-579000;-58 
0-0-16-581000;-55 
0-0-16-583000;-62 
0-0-16-584000;6 
0-0-16-586000;62 
0-0-16-588000;43 
0-0-16-590000;68 
0-0-16-592000;116 
0-0-16-594000;180 
0-0-16-596000;175 
0-0-16-599000;192 
0-0-16-601000;187 
0-0-16-603000;118 
0-0-16-605000;48 
0-0-16-607000;45 
0-0-16-609000;10 
0-0-16-611000;6 
0-0-16-613000;52 
0-0-16-615000;38 
0-0-16-617000;37 
0-0-16-619000;77 
0-0-16-621000;78 
0-0-16-623000;-3 
0-0-16-635000;54 
0-0-16-637000;118 
0-0-16-639000;139 
0-0-16-641000;120 
0-0-16-643000;50 
0-0-16-645000;-9 
0-0-16-647000;-46 
0-0-16-649000;-102 
0-0-16-651000;-121 
0-0-16-653000;-139 
0-0-16-655000;-28 
0-0-16-657000;49 
0-0-16-659000;73 
0-0-16-661000;90 
0-0-16-663000;73 
0-0-16-665000;16 
0-0-16-667000;-29 
0-0-16-669000;-39 
0-0-16-671000;-1 
0-0-16-673000;-15 
0-0-16-677000;70 
0-0-16-679000;120 
0-0-16-681000;63 
0-0-16-683000;24 
0-0-16-685000;1 
0-0-16-687000;-21 
0-0-16-689000;-37 
0-0-16-691000;-5 
0-0-16-693000;10 
0-0-16-695000;69 
0-0-16-697000;106 
0-0-16-699000;108 
0-0-16-702000;111 
0-0-16-704000;53 
0-0-16-706000;8 
0-0-16-708000;-33 
0-0-16-709000;-56 
0-0-16-711000;-25 
0-0-16-713000;29 
0-0-16-715000;76 
0-0-16-717000;115 
0-0-16-719000;112 
0-0-16-721000;78 
0-0-16-723000;59 
0-0-16-725000;-32 
0-0-16-727000;-74 
0-0-16-729000;-34 
0-0-16-731000;0 
0-0-16-733000;66 
0-0-16-736000;102 
0-0-16-738000;113 
0-0-16-740000;120 
0-0-16-742000;92 
0-0-16-744000;50 
0-0-16-746000;-30 
0-0-16-748000;-20 
0-0-16-749000;-20 
0-0-16-751000;-12 
0-0-16-753000;11 
0-0-16-755000;61 
0-0-16-757000;119 
0-0-16-759000;91 
0-0-16-761000;79 
0-0-16-763000;41 
0-0-16-765000;-54 
0-0-16-767000;-37 
0-0-16-769000;-39 
0-0-16-772000;-39 
0-0-16-774000;-43 
0-0-16-776000;6 
0-0-16-778000;28 
0-0-16-780000;40 
0-0-16-782000;3 
0-0-16-784000;-21 
0-0-16-786000;-43 
0-0-16-788000;-56 
0-0-16-790000;-57 
0-0-16-791000;-86 
0-0-16-793000;-53 
0-0-16-795000;-21 
0-0-16-797000;12 
0-0-16-799000;-13 
0-0-16-801000;-19 
0-0-16-803000;-49 
0-0-16-806000;-84 
0-0-16-808000;-109 
0-0-16-810000;-95 
0-0-16-812000;-80 
0-0-16-814000;-32 
0-0-16-816000;-16 
0-0-16-818000;47 
0-0-16-820000;32 
0-0-16-822000;2 
0-0-16-824000;-24 
0-0-16-826000;-47 
0-0-16-828000;-86 
0-0-16-830000;-92 
0-0-16-832000;-70 
0-0-16-833000;-60 
0-0-16-835000;-22 
0-0-16-846000;-77 
0-0-16-848000;-81 
0-0-16-850000;-99 
0-0-16-852000;-85 
0-0-16-854000;-48 
0-0-16-856000;-13 
0-0-16-858000;-51 
0-0-16-860000;-20 
0-0-16-862000;-16 
0-0-16-864000;-58 
0-0-16-866000;-107 
0-0-16-868000;-122 
0-0-16-870000;-101 
0-0-16-872000;-91 
0-0-16-874000;-46 
0-0-16-876000;-47 
0-0-16-878000;-19 
0-0-16-880000;5 
0-0-16-882000;-11 
0-0-16-884000;-59 
0-0-16-886000;-67 
0-0-16-888000;-128 
0-0-16-890000;-104 
0-0-16-892000;-60 
0-0-16-894000;-36 
0-0-16-896000;-4 
0-0-16-898000;11 
0-0-16-900000;28 
0-0-16-902000;30 
0-0-16-904000;-47 
0-0-16-906000;-50 
0-0-16-909000;-73 
0-0-16-911000;-67 
0-0-16-913000;8 
0-0-16-915000;-12 
0-0-16-916000;15 
0-0-16-918000;41 
0-0-16-920000;28 
0-0-16-922000;-3 
0-0-16-924000;-44 
0-0-16-926000;-74 
0-0-16-928000;-67 
0-0-16-930000;-78 
0-0-16-932000;-65 
0-0-16-934000;-78 
0-0-16-936000;0 
0-0-16-938000;19 
0-0-16-940000;7 
0-0-16-943000;-44 
0-0-16-945000;-86 
0-0-16-947000;-141 
0-0-16-949000;-124 
0-0-16-951000;-140 
0-0-16-953000;-120 
0-0-16-955000;-90 
0-0-16-957000;-30 
0-0-16-958000;-25 
0-0-16-960000;-47 
0-0-16-962000;-75 
0-0-16-964000;-156 
0-0-16-966000;-164 
0-0-16-968000;-204 
0-0-16-970000;-214 
0-0-16-972000;-180 
0-0-16-974000;-174 
0-0-16-976000;-159 
0-0-16-979000;-104 
0-0-16-981000;-158 
0-0-16-983000;-192 
0-0-16-985000;-205 
0-0-16-987000;-223 
0-0-16-989000;-291 
0-0-16-991000;-268 
0-0-16-993000;-223 
0-0-16-995000;-212 
0-0-16-997000;-131 
0-0-16-999000;-46 
0-0-17-000000;-106 
0-0-17-002000;-99 
0-0-17-004000;-98 
0-0-17-006000;-127 
0-0-17-008000;-129 
0-0-17-010000;-94 
0-0-17-013000;-41 
0-0-17-015000;-44 
0-0-17-017000;17 
0-0-17-019000;75 
0-0-17-021000;68 
0-0-17-023000;58 
0-0-17-025000;35 
0-0-17-027000;-19 
0-0-17-029000;-28 
0-0-17-031000;3 
0-0-17-033000;5 
0-0-17-035000;18 
0-0-17-037000;108 
0-0-17-039000;127 
0-0-17-041000;96 
0-0-17-042000;96 
0-0-17-044000;82 
0-0-17-057000;186 
0-0-17-059000;227 
0-0-17-061000;215 
0-0-17-063000;198 
0-0-17-065000;163 
0-0-17-067000;138 
0-0-17-069000;145 
0-0-17-071000;207 
0-0-17-073000;183 
0-0-17-075000;194 
0-0-17-077000;205 
0-0-17-079000;245 
0-0-17-082000;211 
0-0-17-083000;235 
0-0-17-085000;193 
0-0-17-087000;191 
0-0-17-089000;188 
0-0-17-091000;193 
0-0-17-093000;186 
0-0-17-095000;210 
0-0-17-097000;236 
0-0-17-101000;209 
0-0-17-103000;175 
0-0-17-105000;142 
0-0-17-107000;126 
0-0-17-109000;123 
0-0-17-111000;96 
0-0-17-113000;110 
0-0-17-116000;146 
0-0-17-118000;207 
0-0-17-120000;152 
0-0-17-122000;163 
0-0-17-124000;133 
0-0-17-125000;88 
0-0-17-127000;53 
0-0-17-129000;45 
0-0-17-131000;56 
0-0-17-133000;75 
0-0-17-135000;91 
0-0-17-137000;116 
0-0-17-139000;105 
0-0-17-141000;72 
0-0-17-143000;64 
0-0-17-145000;19 
0-0-17-147000;3 
0-0-17-149000;8 
0-0-17-152000;-2 
0-0-17-154000;47 
0-0-17-156000;91 
0-0-17-158000;84 
0-0-17-160000;118 
0-0-17-162000;105 
0-0-17-164000;72 
0-0-17-166000;18 
0-0-17-167000;14 
0-0-17-169000;31 
0-0-17-171000;25 
0-0-17-173000;22 
0-0-17-175000;62 
0-0-17-177000;117 
0-0-17-179000;115 
0-0-17-181000;85 
0-0-17-183000;35 
0-0-17-186000;20 
0-0-17-188000;24 
0-0-17-190000;39 
0-0-17-192000;21 
0-0-17-194000;44 
0-0-17-196000;72 
0-0-17-198000;123 
0-0-17-200000;115 
0-0-17-202000;97 
0-0-17-204000;45 
0-0-17-206000;35 
0-0-17-208000;8 
0-0-17-209000;31 
0-0-17-211000;49 
0-0-17-213000;87 
0-0-17-215000;86 
0-0-17-217000;116 
0-0-17-220000;145 
0-0-17-222000;85 
0-0-17-224000;54 
0-0-17-226000;47 
0-0-17-228000;30 
0-0-17-230000;13 
0-0-17-232000;35 
0-0-17-234000;61 
0-0-17-236000;81 
0-0-17-238000;118 
0-0-17-240000;133 
0-0-17-242000;80 
0-0-17-244000;70 
0-0-17-246000;22 
0-0-17-248000;6 
0-0-17-249000;40 
0-0-17-251000;25 
0-0-17-254000;41 
0-0-17-256000;75 
0-0-17-258000;66 
0-0-17-270000;-146 
0-0-17-272000;-116 
0-0-17-274000;-52 
0-0-17-276000;-61 
0-0-17-278000;-24 
0-0-17-280000;-2 
0-0-17-282000;-19 
0-0-17-284000;14 
0-0-17-286000;38 
0-0-17-289000;15 
0-0-17-291000;83 
0-0-17-292000;99 
0-0-17-294000;148 
0-0-17-296000;165 
0-0-17-298000;184 
0-0-17-300000;205 
0-0-17-302000;186 
0-0-17-304000;130 
0-0-17-306000;126 
0-0-17-308000;111 
0-0-17-310000;111 
0-0-17-312000;152 
0-0-17-314000;146 
0-0-17-316000;178 
0-0-17-318000;221 
0-0-17-320000;209 
0-0-17-323000;156 
0-0-17-325000;149 
0-0-17-327000;161 
0-0-17-329000;89 
0-0-17-331000;114 
0-0-17-333000;102 
0-0-17-334000;98 
0-0-17-336000;148 
0-0-17-338000;152 
0-0-17-340000;170 
0-0-17-342000;138 
0-0-17-344000;100 
0-0-17-346000;86 
0-0-17-348000;61 
0-0-17-350000;35 
0-0-17-352000;71 
0-0-17-354000;102 
0-0-17-356000;125 
0-0-17-359000;138 
0-0-17-361000;121 
0-0-17-363000;97 
0-0-17-365000;35 
0-0-17-367000;18 
0-0-17-369000;12 
0-0-17-371000;20 
0-0-17-373000;40 
0-0-17-374000;105 
0-0-17-376000;137 
0-0-17-378000;156 
0-0-17-380000;122 
0-0-17-382000;126 
0-0-17-384000;80 
0-0-17-386000;87 
0-0-17-388000;33 
0-0-17-390000;55 
0-0-17-393000;101 
0-0-17-395000;110 
0-0-17-397000;164 
0-0-17-399000;148 
0-0-17-401000;156 
0-0-17-403000;128 
0-0-17-405000;112 
0-0-17-407000;74 
0-0-17-409000;49 
0-0-17-411000;91 
0-0-17-413000;75 
0-0-17-415000;119 
0-0-17-416000;134 
0-0-17-418000;144 
0-0-17-420000;143 
0-0-17-422000;95 
0-0-17-424000;92 
0-0-17-427000;22 
0-0-17-429000;41 
0-0-17-431000;25 
0-0-17-433000;69 
0-0-17-435000;75 
0-0-17-437000;121 
0-0-17-439000;133 
0-0-17-441000;137 
0-0-17-443000;113 
0-0-17-445000;59 
0-0-17-447000;32 
0-0-17-449000;31 
0-0-17-451000;23 
0-0-17-453000;63 
0-0-17-455000;84 
0-0-17-457000;131 
0-0-17-458000;132 
0-0-17-461000;142 
0-0-17-463000;95 
0-0-17-465000;49 
0-0-17-467000;32 
0-0-17-469000;6 
0-0-17-481000;131 
0-0-17-483000;57 
0-0-17-485000;42 
0-0-17-487000;15 
0-0-17-489000;31 
0-0-17-491000;17 
0-0-17-493000;39 
0-0-17-496000;78 
0-0-17-498000;102 
0-0-17-499000;124 
0-0-17-501000;115 
0-0-17-503000;49 
0-0-17-505000;46 
0-0-17-507000;9 
0-0-17-509000;33 
0-0-17-511000;23 
0-0-17-513000;45 
0-0-17-515000;107 
0-0-17-517000;136 
0-0-17-519000;148 
0-0-17-521000;118 
0-0-17-523000;96 
0-0-17-527000;40 
0-0-17-530000;13 
0-0-17-532000;10 
0-0-17-534000;47 
0-0-17-536000;85 
0-0-17-538000;128 
0-0-17-540000;118 
0-0-17-541000;111 
0-0-17-543000;61 
0-0-17-545000;14 
0-0-17-547000;-20 
0-0-17-549000;-11 
0-0-17-551000;0 
0-0-17-553000;51 
0-0-17-555000;41 
0-0-17-557000;82 
0-0-17-559000;72 
0-0-17-561000;81 
0-0-17-563000;62 
0-0-17-566000;26 
0-0-17-568000;10 
0-0-17-570000;2 
0-0-17-572000;24 
0-0-17-574000;49 
0-0-17-576000;67 
0-0-17-578000;78 
0-0-17-580000;113 
0-0-17-582000;93 
0-0-17-583000;60 
0-0-17-585000;24 
0-0-17-587000;10 
0-0-17-589000;27 
0-0-17-591000;41 
0-0-17-593000;77 
0-0-17-595000;72 
0-0-17-597000;66 
0-0-17-600000;86 
0-0-17-602000;50 
0-0-17-604000;28 
0-0-17-606000;-2 
0-0-17-608000;-28 
0-0-17-610000;-15 
0-0-17-612000;-9 
0-0-17-614000;31 
0-0-17-616000;25 
0-0-17-618000;60 
0-0-17-620000;70 
0-0-17-622000;38 
0-0-17-624000;7 
0-0-17-625000;-57 
0-0-17-627000;-58 
0-0-17-629000;-74 
0-0-17-631000;-33 
0-0-17-634000;-41 
0-0-17-636000;13 
0-0-17-638000;17 
0-0-17-640000;44 
0-0-17-642000;-17 
0-0-17-644000;-25 
0-0-17-646000;-51 
0-0-17-648000;-62 
0-0-17-650000;-101 
0-0-17-652000;-77 
0-0-17-654000;-49 
0-0-17-656000;-29 
0-0-17-658000;31 
0-0-17-660000;-19 
0-0-17-662000;-1 
0-0-17-664000;-55 
0-0-17-666000;-55 
0-0-17-668000;-114 
0-0-17-670000;-88 
0-0-17-672000;-97 
0-0-17-674000;-54 
0-0-17-676000;-42 
0-0-17-678000;8 
0-0-17-680000;-33 
0-0-17-682000;-11 
0-0-17-694000;-8 
0-0-17-696000;0 
0-0-17-698000;20 
0-0-17-700000;46 
0-0-17-703000;16 
0-0-17-705000;12 
0-0-17-707000;-38 
0-0-17-708000;-47 
0-0-17-710000;-31 
0-0-17-712000;-8 
0-0-17-714000;33 
0-0-17-716000;36 
0-0-17-718000;71 
0-0-17-720000;74 
0-0-17-722000;49 
0-0-17-724000;19 
0-0-17-726000;11 
0-0-17-728000;-2 
0-0-17-730000;1 
0-0-17-732000;55 
0-0-17-734000;40 
0-0-17-737000;89 
0-0-17-739000;117 
0-0-17-741000;92 
0-0-17-743000;80 
0-0-17-745000;44 
0-0-17-747000;44 
0-0-17-749000;9 
0-0-17-750000;60 
0-0-17-752000;59 
0-0-17-754000;108 
0-0-17-756000;113 
0-0-17-758000;167 
0-0-17-760000;144 
0-0-17-762000;127 
0-0-17-764000;76 
0-0-17-766000;75 
0-0-17-768000;51 
0-0-17-770000;57 
0-0-17-773000;79 
0-0-17-775000;94 
0-0-17-777000;153 
0-0-17-779000;163 
0-0-17-781000;144 
0-0-17-783000;128 
0-0-17-785000;94 
0-0-17-787000;88 
0-0-17-789000;82 
0-0-17-791000;74 
0-0-17-792000;84 
0-0-17-794000;119 
0-0-17-796000;152 
0-0-17-798000;151 
0-0-17-800000;148 
0-0-17-802000;103 
0-0-17-804000;71 
0-0-17-807000;15 
0-0-17-809000;40 
0-0-17-811000;4 
0-0-17-813000;44 
0-0-17-815000;44 
0-0-17-817000;77 
0-0-17-819000;88 
0-0-17-821000;60 
0-0-17-823000;13 
0-0-17-825000;12 
0-0-17-827000;-53 
0-0-17-829000;-66 
0-0-17-831000;-91 
0-0-17-833000;-48 
0-0-17-834000;-30 
0-0-17-836000;-26 
0-0-17-838000;0 
0-0-17-841000;-28 
0-0-17-843000;-30 
0-0-17-845000;-94 
0-0-17-847000;-106 
0-0-17-849000;-120 
0-0-17-851000;-130 
0-0-17-853000;-96 
0-0-17-855000;-107 
0-0-17-857000;-82 
0-0-17-859000;-91 
0-0-17-861000;-79 
0-0-17-863000;-103 
0-0-17-865000;-148 
0-0-17-867000;-185 
0-0-17-869000;-187 
0-0-17-871000;-181 
0-0-17-873000;-155 
0-0-17-875000;-125 
0-0-17-877000;-86 
0-0-17-879000;-76 
0-0-17-881000;-62 
0-0-17-883000;-120 
0-0-17-885000;-112 
0-0-17-887000;-149 
0-0-17-889000;-132 
0-0-17-891000;-132 
0-0-17-893000;-94 
0-0-17-905000;-49 
0-0-17-907000;-59 
0-0-17-910000;-56 
0-0-17-912000;-57 
0-0-17-914000;-13 
0-0-17-916000;18 
0-0-17-917000;56 
0-0-17-919000;80 
0-0-17-921000;56 
0-0-17-923000;65 
0-0-17-925000;15 
0-0-17-927000;45 
0-0-17-929000;-10 
0-0-17-931000;24 
0-0-17-933000;30 
0-0-17-935000;91 
0-0-17-937000;62 
0-0-17-939000;75 
0-0-17-941000;19 
0-0-17-943000;-11 
0-0-17-946000;-78 
0-0-17-948000;-109 
0-0-17-950000;-160 
0-0-17-954000;-154 
0-0-17-956000;-124 
0-0-17-958000;-135 
0-0-17-959000;-131 
0-0-17-961000;-131 
0-0-17-963000;-158 
0-0-17-965000;-143 
0-0-17-967000;-151 
0-0-17-969000;-140 
0-0-17-971000;-81 
0-0-17-973000;-12 
0-0-17-975000;7 
0-0-17-977000;57 
0-0-17-980000;42 
0-0-17-982000;47 
0-0-17-984000;-19 
0-0-17-986000;-14 
0-0-17-988000;-90 
0-0-17-990000;-75 
0-0-17-992000;-89 
0-0-17-994000;-68 
0-0-17-996000;-62 
0-0-17-998000;-41 
0-0-17-999000;-26 
0-0-18-001000;-58 
0-0-18-003000;-89 
0-0-18-005000;-120 
0-0-18-007000;-114 
0-0-18-009000;-124 
0-0-18-011000;-84 
0-0-18-014000;-91 
0-0-18-016000;-45 
0-0-18-018000;-36 
0-0-18-020000;-14 
0-0-18-022000;-49 
0-0-18-024000;-43 
0-0-18-026000;-89 
0-0-18-028000;-84 
0-0-18-030000;-82 
0-0-18-032000;-57 
0-0-18-034000;-23 
0-0-18-036000;-3 
0-0-18-038000;52 
0-0-18-040000;75 
0-0-18-041000;45 
0-0-18-043000;53 
0-0-18-045000;23 
0-0-18-048000;29 
0-0-18-050000;57 
0-0-18-052000;49 
0-0-18-054000;106 
0-0-18-056000;148 
0-0-18-058000;187 
0-0-18-060000;184 
0-0-18-062000;176 
0-0-18-064000;169 
0-0-18-066000;165 
0-0-18-068000;133 
0-0-18-070000;144 
0-0-18-072000;162 
0-0-18-074000;188 
0-0-18-076000;238 
0-0-18-078000;265 
0-0-18-080000;226 
0-0-18-083000;250 
0-0-18-084000;210 
0-0-18-086000;199 
0-0-18-088000;173 
0-0-18-090000;178 
0-0-18-092000;190 
0-0-18-094000;224 
0-0-18-096000;247 
0-0-18-098000;262 
0-0-18-100000;266 
0-0-18-102000;230 
0-0-18-104000;215 
0-0-18-106000;147 
0-0-18-117000;202 
0-0-18-119000;166 
0-0-18-121000;184 
0-0-18-123000;142 
0-0-18-124000;95 
0-0-18-126000;47 
0-0-18-128000;50 
0-0-18-130000;28 
0-0-18-132000;59 
0-0-18-134000;53 
0-0-18-136000;87 
0-0-18-138000;84 
0-0-18-140000;86 
0-0-18-142000;54 
0-0-18-144000;23 
0-0-18-146000;-17 
0-0-18-148000;-19 
0-0-18-150000;-28 
0-0-18-153000;-47 
0-0-18-155000;-1 
0-0-18-157000;3 
0-0-18-159000;40 
0-0-18-161000;18 
0-0-18-163000;19 
0-0-18-165000;-49 
0-0-18-166000;-53 
0-0-18-168000;-87 
0-0-18-170000;-56 
0-0-18-172000;-77 
0-0-18-174000;-43 
0-0-18-176000;-21 
0-0-18-178000;-16 
0-0-18-180000;1 
0-0-18-182000;-52 
0-0-18-184000;-56 
0-0-18-187000;-101 
0-0-18-189000;-94 
0-0-18-191000;-101 
0-0-18-193000;-89 
0-0-18-195000;-59 
0-0-18-197000;-28 
0-0-18-199000;-3 
0-0-18-201000;-36 
0-0-18-203000;-56 
0-0-18-205000;-70 
0-0-18-207000;-74 
0-0-18-208000;-96 
0-0-18-210000;-102 
0-0-18-212000;-53 
0-0-18-214000;-44 
0-0-18-216000;2 
0-0-18-218000;7 
0-0-18-221000;11 
0-0-18-223000;10 
0-0-18-225000;-22 
0-0-18-227000;-23 
0-0-18-229000;-11 
0-0-18-231000;-30 
0-0-18-233000;4 
0-0-18-235000;43 
0-0-18-237000;45 
0-0-18-239000;70 
0-0-18-241000;66 
0-0-18-243000;70 
0-0-18-245000;40 
0-0-18-247000;53 
0-0-18-249000;17 
0-0-18-250000;30 
0-0-18-252000;70 
0-0-18-255000;105 
0-0-18-257000;101 
0-0-18-259000;143 
0-0-18-261000;142 
0-0-18-263000;127 
0-0-18-265000;111 
0-0-18-267000;83 
0-0-18-269000;88 
0-0-18-271000;80 
0-0-18-273000;133 
0-0-18-275000;113 
0-0-18-277000;157 
0-0-18-279000;161 
0-0-18-281000;166 
0-0-18-283000;156 
0-0-18-285000;91 
0-0-18-287000;91 
0-0-18-290000;59 
0-0-18-291000;95 
0-0-18-293000;111 
0-0-18-295000;93 
0-0-18-297000;139 
0-0-18-299000;128 
0-0-18-301000;140 
0-0-18-303000;85 
0-0-18-305000;67 
0-0-18-307000;49 
0-0-18-309000;27 
0-0-18-311000;33 
0-0-18-313000;50 
0-0-18-315000;86 
0-0-18-328000;10 
0-0-18-330000;11 
0-0-18-332000;-10 
0-0-18-333000;30 
0-0-18-335000;28 
0-0-18-337000;71 
0-0-18-339000;82 
0-0-18-341000;43 
0-0-18-343000;34 
0-0-18-345000;17 
0-0-18-347000;-11 
0-0-18-349000;-28 
0-0-18-351000;-32 
0-0-18-353000;8 
0-0-18-355000;5 
0-0-18-357000;61 
0-0-18-360000;37 
0-0-18-362000;30 
0-0-18-364000;8 
0-0-18-366000;-17 
0-0-18-368000;-32 
0-0-18-370000;-52 
0-0-18-372000;-30 
0-0-18-374000;-12 
0-0-18-377000;37 
0-0-18-379000;8 
0-0-18-381000;50 
0-0-18-383000;0 
0-0-18-385000;-18 
0-0-18-387000;-32 
0-0-18-389000;-57 
0-0-18-391000;-40 
0-0-18-394000;-17 
0-0-18-396000;-2 
0-0-18-398000;35 
0-0-18-400000;25 
0-0-18-402000;29 
0-0-18-404000;7 
0-0-18-406000;-52 
0-0-18-408000;-45 
0-0-18-410000;-54 
0-0-18-412000;-26 
0-0-18-414000;-26 
0-0-18-416000;1 
0-0-18-417000;31 
0-0-18-419000;29 
0-0-18-421000;36 
0-0-18-423000;15 
0-0-18-425000;-27 
0-0-18-427000;-35 
0-0-18-430000;-26 
0-0-18-432000;-3 
0-0-18-434000;-14 
0-0-18-436000;40 
0-0-18-438000;34 
0-0-18-440000;79 
0-0-18-442000;33 
0-0-18-444000;28 
0-0-18-446000;1 
0-0-18-448000;1 
0-0-18-450000;-12 
0-0-18-452000;6 
0-0-18-454000;16 
0-0-18-456000;61 
0-0-18-458000;81 
0-0-18-459000;77 
0-0-18-461000;38 
0-0-18-464000;81 
0-0-18-466000;5 
0-0-18-468000;11 
0-0-18-470000;5 
0-0-18-472000;23 
0-0-18-474000;18 
0-0-18-476000;58 
0-0-18-478000;73 
0-0-18-480000;64 
0-0-18-482000;56 
0-0-18-484000;20 
0-0-18-486000;11 
0-0-18-488000;-7 
0-0-18-490000;-9 
0-0-18-492000;-6 
0-0-18-494000;20 
0-0-18-496000;41 
0-0-18-499000;63 
0-0-18-500000;66 
0-0-18-502000;33 
0-0-18-504000;42 
0-0-18-506000;-6 
0-0-18-508000;-31 
0-0-18-510000;-6 
0-0-18-512000;-1 
0-0-18-514000;32 
0-0-18-516000;61 
0-0-18-518000;48 
0-0-18-520000;70 
0-0-18-522000;45 
0-0-18-524000;27 
0-0-18-526000;-40 
0-0-18-528000;-5 
0-0-18-541000;59 
0-0-18-542000;60 
0-0-18-544000;18 
0-0-18-546000;-4 
0-0-18-548000;-5 
0-0-18-550000;-6 
0-0-18-552000;-8 
0-0-18-554000;49 
0-0-18-556000;22 
0-0-18-558000;71 
0-0-18-560000;68 
0-0-18-562000;47 
0-0-18-564000;9 
0-0-18-567000;-15 
0-0-18-569000;-10 
0-0-18-571000;3 
0-0-18-573000;-5 
0-0-18-575000;18 
0-0-18-577000;53 
0-0-18-579000;48 
0-0-18-581000;69 
0-0-18-583000;38 
0-0-18-584000;2 
0-0-18-586000;-10 
0-0-18-588000;-13 
0-0-18-590000;-29 
0-0-18-592000;13 
0-0-18-594000;20 
0-0-18-596000;35 
0-0-18-598000;80 
0-0-18-601000;68 
0-0-18-603000;47 
0-0-18-605000;6 
0-0-18-607000;11 
0-0-18-609000;-13 
0-0-18-611000;-28 
0-0-18-613000;-35 
0-0-18-615000;-2 
0-0-18-617000;-13 
0-0-18-619000;-16 
0-0-18-621000;-68 
0-0-18-623000;-106 
0-0-18-624000;-141 
0-0-18-626000;-183 
0-0-18-628000;-184 
0-0-18-630000;-186 
0-0-18-632000;-186 
0-0-18-634000;-129 
0-0-18-637000;-116 
0-0-18-639000;-47 
0-0-18-641000;-39 
0-0-18-643000;2 
0-0-18-645000;22 
0-0-18-647000;50 
0-0-18-649000;50 
0-0-18-651000;65 
0-0-18-653000;96 
0-0-18-655000;104 
0-0-18-657000;115 
0-0-18-659000;137 
0-0-18-661000;121 
0-0-18-663000;92 
0-0-18-665000;91 
0-0-18-666000;64 
0-0-18-668000;45 
0-0-18-671000;49 
0-0-18-673000;78 
0-0-18-675000;90 
0-0-18-677000;103 
0-0-18-679000;128 
0-0-18-681000;114 
0-0-18-683000;96 
0-0-18-685000;78 
0-0-18-687000;42 
0-0-18-689000;25 
0-0-18-691000;53 
0-0-18-693000;36 
0-0-18-695000;74 
0-0-18-697000;88 
0-0-18-699000;128 
0-0-18-701000;110 
0-0-18-703000;90 
0-0-18-706000;50 
0-0-18-708000;56 
0-0-18-709000;15 
0-0-18-711000;51 
0-0-18-713000;44 
0-0-18-715000;83 
0-0-18-717000;103 
0-0-18-719000;108 
0-0-18-721000;102 
0-0-18-723000;68 
0-0-18-725000;60 
0-0-18-727000;14 
0-0-18-729000;43 
0-0-18-731000;43 
0-0-18-733000;43 
0-0-18-735000;80 
0-0-18-737000;83 
0-0-18-740000;130 
0-0-18-751000;25 
0-0-18-753000;55 
0-0-18-755000;50 
0-0-18-757000;104 
0-0-18-759000;89 
0-0-18-761000;59 
0-0-18-763000;57 
0-0-18-765000;29 
0-0-18-767000;12 
0-0-18-769000;10 
0-0-18-771000;-1 
0-0-18-774000;17 
0-0-18-776000;58 
0-0-18-778000;74 
0-0-18-780000;51 
0-0-18-782000;55 
0-0-18-784000;39 
0-0-18-786000;7 
0-0-18-788000;-13 
0-0-18-790000;-13 
0-0-18-791000;-13 
0-0-18-793000;8 
0-0-18-795000;31 
0-0-18-797000;63 
0-0-18-799000;56 
0-0-18-803000;39 
0-0-18-805000;-26 
0-0-18-808000;-17 
0-0-18-810000;-35 
0-0-18-812000;-11 
0-0-18-814000;1 
0-0-18-816000;23 
0-0-18-818000;25 
0-0-18-820000;37 
0-0-18-822000;45 
0-0-18-824000;9 
0-0-18-826000;-23 
0-0-18-828000;-26 
0-0-18-830000;-47 
0-0-18-832000;5 
0-0-18-833000;3 
0-0-18-835000;8 
0-0-18-837000;52 
0-0-18-839000;39 
0-0-18-841000;51 
0-0-18-844000;18 
0-0-18-846000;-6 
0-0-18-848000;-27 
0-0-18-850000;-27 
0-0-18-852000;13 
0-0-18-854000;5 
0-0-18-856000;33 
0-0-18-858000;58 
0-0-18-860000;57 
0-0-18-862000;50 
0-0-18-864000;1 
0-0-18-866000;13 
0-0-18-868000;-19 
0-0-18-870000;15 
0-0-18-872000;-11 
0-0-18-874000;21 
0-0-18-875000;52 
0-0-18-878000;65 
0-0-18-880000;66 
0-0-18-882000;50 
0-0-18-884000;36 
0-0-18-886000;1 
0-0-18-888000;3 
0-0-18-890000;3 
0-0-18-892000;6 
0-0-18-894000;42 
0-0-18-896000;56 
0-0-18-898000;66 
0-0-18-900000;87 
0-0-18-902000;65 
0-0-18-904000;54 
0-0-18-906000;22 
0-0-18-908000;10 
0-0-18-910000;-4 
0-0-18-913000;32 
0-0-18-915000;32 
0-0-18-916000;84 
0-0-18-918000;78 
0-0-18-920000;72 
0-0-18-922000;80 
0-0-18-924000;35 
0-0-18-926000;35 
0-0-18-928000;14 
0-0-18-930000;-4 
0-0-18-932000;37 
0-0-18-934000;43 
0-0-18-936000;64 
0-0-18-938000;87 
0-0-18-940000;81 
0-0-18-942000;80 
0-0-18-944000;35 
0-0-18-947000;27 
0-0-18-949000;9 
0-0-18-951000;-4 
0-0-18-953000;33 
0-0-18-966000;2 
0-0-18-968000;4 
0-0-18-970000;15 
0-0-18-972000;24 
0-0-18-974000;48 
0-0-18-976000;56 
0-0-18-978000;73 
0-0-18-981000;100 
0-0-18-983000;52 
0-0-18-985000;38 
0-0-18-987000;24 
0-0-18-989000;-11 
0-0-18-991000;27 
0-0-18-993000;18 
0-0-18-995000;38 
0-0-18-997000;74 
0-0-18-999000;72 
0-0-19-000000;103 
0-0-19-002000;39 
0-0-19-004000;42 
0-0-19-006000;11 
0-0-19-008000;5 
0-0-19-010000;5 
0-0-19-012000;19 
0-0-19-015000;44 
0-0-19-017000;48 
0-0-19-019000;85 
0-0-19-021000;79 
0-0-19-023000;44 
0-0-19-025000;31 
0-0-19-027000;34 
0-0-19-029000;-11 
0-0-19-031000;37 
0-0-19-033000;48 
0-0-19-035000;47 
0-0-19-037000;62 
0-0-19-039000;93 
0-0-19-041000;60 
0-0-19-042000;44 
0-0-19-044000;45 
0-0-19-046000;17 
0-0-19-048000;-9 
0-0-19-051000;15 
0-0-19-053000;19 
0-0-19-055000;53 
0-0-19-057000;81 
0-0-19-059000;66 
0-0-19-061000;77 
0-0-19-063000;63 
0-0-19-065000;32 
0-0-19-067000;10 
0-0-19-069000;-5 
0-0-19-071000;6 
0-0-19-073000;42 
0-0-19-075000;32 
0-0-19-077000;49 
0-0-19-079000;65 
0-0-19-081000;69 
0-0-19-083000;59 
0-0-19-085000;22 
0-0-19-087000;-7 
0-0-19-089000;-1 
0-0-19-091000;-5 
0-0-19-093000;44 
0-0-19-095000;32 
0-0-19-097000;68 
0-0-19-099000;55 
0-0-19-101000;85 
0-0-19-103000;36 
0-0-19-105000;28 
0-0-19-107000;-9 
0-0-19-109000;-7 
0-0-19-111000;19 
0-0-19-113000;8 
0-0-19-115000;41 
0-0-19-117000;55 
0-0-19-120000;86 
0-0-19-122000;51 
0-0-19-124000;60 
0-0-19-125000;11 
0-0-19-127000;-8 
0-0-19-129000;0 
0-0-19-131000;21 
0-0-19-133000;-7 
0-0-19-135000;52 
0-0-19-137000;61 
0-0-19-139000;58 
0-0-19-141000;69 
0-0-19-143000;26 
0-0-19-145000;18 
0-0-19-147000;4 
0-0-19-149000;-11 
0-0-19-151000;4 
0-0-19-154000;12 
0-0-19-156000;55 
0-0-19-158000;36 
0-0-19-160000;67 
0-0-19-162000;49 
0-0-19-164000;43 
0-0-19-166000;3 
0-0-19-175000;39 
0-0-19-177000;84 
0-0-19-179000;61 
0-0-19-181000;72 
0-0-19-183000;42 
0-0-19-185000;28 
0-0-19-188000;9 
0-0-19-190000;12 
0-0-19-192000;12 
0-0-19-194000;38 
0-0-19-196000;55 
0-0-19-198000;70 
0-0-19-200000;83 
0-0-19-202000;76 
0-0-19-204000;51 
0-0-19-206000;20 
0-0-19-208000;-2 
0-0-19-209000;-8 
0-0-19-211000;-1 
0-0-19-213000;41 
0-0-19-215000;56 
0-0-19-217000;68 
0-0-19-219000;65 
0-0-19-221000;71 
0-0-19-224000;51 
0-0-19-226000;4 
0-0-19-230000;3 
0-0-19-232000;5 
0-0-19-234000;49 
0-0-19-236000;50 
0-0-19-238000;64 
0-0-19-240000;86 
0-0-19-242000;69 
0-0-19-244000;45 
0-0-19-246000;4 
0-0-19-248000;-3 
0-0-19-249000;6 
0-0-19-251000;2 
0-0-19-253000;53 
0-0-19-255000;37 
0-0-19-258000;61 
0-0-19-260000;86 
0-0-19-262000;42 
0-0-19-264000;48 
0-0-19-266000;33 
0-0-19-268000;27 
0-0-19-270000;23 
0-0-19-272000;19 
0-0-19-274000;62 
0-0-19-276000;43 
0-0-19-278000;72 
0-0-19-280000;62 
0-0-19-282000;4 
0-0-19-284000;-15 
0-0-19-286000;-79 
0-0-19-288000;-97 
0-0-19-290000;-139 
0-0-19-292000;-130 
0-0-19-294000;-131 
0-0-19-296000;-137 
0-0-19-298000;-78 
0-0-19-300000;-102 
0-0-19-302000;-117 
0-0-19-304000;-143 
0-0-19-306000;-118 
0-0-19-308000;-101 
0-0-19-310000;-76 
0-0-19-312000;-23 
0-0-19-314000;52 
0-0-19-316000;92 
0-0-19-318000;146 
0-0-19-320000;124 
0-0-19-322000;129 
0-0-19-324000;93 
0-0-19-327000;85 
0-0-19-329000;27 
0-0-19-331000;44 
0-0-19-333000;43 
0-0-19-334000;91 
0-0-19-336000;88 
0-0-19-338000;114 
0-0-19-340000;92 
0-0-19-342000;83 
0-0-19-344000;78 
0-0-19-346000;57 
0-0-19-348000;33 
0-0-19-350000;26 
0-0-19-352000;62 
0-0-19-354000;91 
0-0-19-356000;78 
0-0-19-358000;119 
0-0-19-361000;94 
0-0-19-363000;100 
0-0-19-365000;69 
0-0-19-367000;43 
0-0-19-369000;37 
0-0-19-371000;20 
0-0-19-373000;53 
0-0-19-374000;44 
0-0-19-376000;89 
0-0-19-388000;23 
0-0-19-390000;14 
0-0-19-392000;53 
0-0-19-395000;37 
0-0-19-397000;68 
0-0-19-399000;97 
0-0-19-401000;67 
0-0-19-403000;80 
0-0-19-405000;27 
0-0-19-407000;29 
0-0-19-409000;-16 
0-0-19-411000;32 
0-0-19-413000;44 
0-0-19-415000;58 
0-0-19-416000;59 
0-0-19-418000;109 
0-0-19-420000;63 
0-0-19-422000;71 
0-0-19-424000;25 
0-0-19-426000;22 
0-0-19-428000;4 
0-0-19-431000;33 
0-0-19-433000;-5 
0-0-19-435000;53 
0-0-19-437000;53 
0-0-19-439000;95 
0-0-19-441000;54 
0-0-19-443000;47 
0-0-19-445000;17 
0-0-19-447000;-8 
0-0-19-449000;-10 
0-0-19-451000;-18 
0-0-19-453000;27 
0-0-19-455000;29 
0-0-19-457000;66 
0-0-19-458000;54 
0-0-19-460000;71 
0-0-19-462000;36 
0-0-19-465000;41 
0-0-19-467000;-7 
0-0-19-469000;-10 
0-0-19-471000;-11 
0-0-19-473000;13 
0-0-19-475000;36 
0-0-19-477000;52 
0-0-19-479000;65 
0-0-19-481000;46 
0-0-19-483000;49 
0-0-19-485000;23 
0-0-19-487000;-19 
0-0-19-489000;-13 
0-0-19-491000;-21 
0-0-19-493000;3 
0-0-19-495000;37 
0-0-19-497000;52 
0-0-19-499000;70 
0-0-19-501000;64 
0-0-19-503000;48 
0-0-19-505000;9 
0-0-19-507000;2 
0-0-19-509000;-23 
0-0-19-511000;4 
0-0-19-513000;13 
0-0-19-515000;36 
0-0-19-517000;55 
0-0-19-519000;73 
0-0-19-521000;44 
0-0-19-523000;60 
0-0-19-525000;7 
0-0-19-527000;-19 
0-0-19-529000;5 
0-0-19-531000;4 
0-0-19-534000;21 
0-0-19-536000;39 
0-0-19-538000;55 
0-0-19-540000;80 
0-0-19-541000;54 
0-0-19-543000;52 
0-0-19-545000;6 
0-0-19-547000;1 
0-0-19-549000;12 
0-0-19-551000;-12 
0-0-19-553000;24 
0-0-19-555000;46 
0-0-19-557000;63 
0-0-19-559000;86 
0-0-19-561000;78 
0-0-19-563000;49 
0-0-19-565000;14 
0-0-19-568000;16 
0-0-19-570000;8 
0-0-19-572000;23 
0-0-19-574000;27 
0-0-19-576000;49 
0-0-19-578000;87 
0-0-19-580000;66 
0-0-19-582000;71 
0-0-19-583000;41 
0-0-19-585000;31 
0-0-19-587000;34 
0-0-19-599000;70 
0-0-19-602000;107 
0-0-19-604000;37 
0-0-19-606000;30 
0-0-19-608000;16 
0-0-19-610000;-9 
0-0-19-612000;15 
0-0-19-614000;33 
0-0-19-616000;68 
0-0-19-618000;61 
0-0-19-620000;86 
0-0-19-622000;58 
0-0-19-624000;49 
0-0-19-625000;12 
0-0-19-627000;9 
0-0-19-629000;-9 
0-0-19-631000;15 
0-0-19-633000;37 
0-0-19-635000;49 
0-0-19-638000;61 
0-0-19-640000;86 
0-0-19-642000;82 
0-0-19-644000;39 
0-0-19-646000;-11 
0-0-19-648000;1 
0-0-19-650000;-12 
0-0-19-652000;20 
0-0-19-656000;48 
0-0-19-658000;66 
0-0-19-660000;87 
0-0-19-662000;62 
0-0-19-664000;39 
0-0-19-666000;3 
0-0-19-667000;1 
0-0-19-669000;-11 
0-0-19-672000;10 
0-0-19-674000;13 
0-0-19-676000;64 
0-0-19-678000;68 
0-0-19-680000;96 
0-0-19-682000;47 
0-0-19-684000;35 
0-0-19-686000;14 
0-0-19-688000;11 
0-0-19-690000;-14 
0-0-19-692000;40 
0-0-19-694000;7 
0-0-19-696000;63 
0-0-19-698000;77 
0-0-19-700000;96 
0-0-19-702000;50 
0-0-19-704000;35 
0-0-19-707000;27 
0-0-19-708000;-7 
0-0-19-710000;17 
0-0-19-712000;0 
0-0-19-714000;50 
0-0-19-716000;45 
0-0-19-718000;99 
0-0-19-720000;67 
0-0-19-722000;44 
0-0-19-724000;45 
0-0-19-726000;13 
0-0-19-728000;1 
0-0-19-730000;2 
0-0-19-732000;2 
0-0-19-734000;42 
0-0-19-736000;53 
0-0-19-738000;103 
0-0-19-741000;46 
0-0-19-743000;66 
0-0-19-745000;25 
0-0-19-747000;31 
0-0-19-749000;-22 
0-0-19-750000;-6 
0-0-19-752000;10 
0-0-19-754000;19 
0-0-19-756000;73 
0-0-19-758000;57 
0-0-19-760000;86 
0-0-19-762000;52 
0-0-19-764000;44 
0-0-19-766000;15 
0-0-19-768000;-19 
0-0-19-770000;1 
0-0-19-772000;-2 
0-0-19-775000;43 
0-0-19-777000;49 
0-0-19-779000;56 
0-0-19-781000;80 
0-0-19-783000;45 
0-0-19-785000;46 
0-0-19-787000;-23 
0-0-19-789000;-3 
0-0-19-791000;1 
0-0-19-792000;14 
0-0-19-794000;17 
0-0-19-796000;61 
0-0-19-798000;64 
0-0-19-800000;83 
0-0-19-811000;-10 
0-0-19-813000;10 
0-0-19-815000;18 
0-0-19-817000;38 
0-0-19-819000;75 
0-0-19-821000;39 
0-0-19-823000;74 
0-0-19-825000;-10 
0-0-19-827000;1 
0-0-19-829000;-27 
0-0-19-831000;13 
0-0-19-833000;-8 
0-0-19-834000;28 
0-0-19-836000;68 
0-0-19-838000;77 
0-0-19-840000;80 
0-0-19-842000;63 
0-0-19-845000;26 
0-0-19-847000;23 
0-0-19-849000;3 
0-0-19-851000;-4 
0-0-19-853000;29 
0-0-19-855000;30 
0-0-19-857000;82 
0-0-19-859000;80 
0-0-19-861000;62 
0-0-19-863000;50 
0-0-19-865000;23 
0-0-19-867000;5 
0-0-19-869000;13 
0-0-19-871000;-1 
0-0-19-873000;14 
0-0-19-874000;34 
0-0-19-876000;71 
0-0-19-879000;61 
0-0-19-881000;63 
0-0-19-883000;60 
0-0-19-885000;27 
0-0-19-887000;4 
0-0-19-889000;2 
0-0-19-891000;6 
0-0-19-893000;15 
0-0-19-895000;44 
0-0-19-897000;61 
0-0-19-899000;73 
0-0-19-901000;78 
0-0-19-903000;70 
0-0-19-905000;16 
0-0-19-907000;12 
0-0-19-909000;-26 
0-0-19-911000;-5 
0-0-19-914000;38 
0-0-19-916000;52 
0-0-19-917000;40 
0-0-19-919000;86 
0-0-19-921000;65 
0-0-19-923000;79 
0-0-19-925000;18 
0-0-19-927000;13 
0-0-19-929000;13 
0-0-19-931000;3 
0-0-19-933000;23 
0-0-19-935000;60 
0-0-19-937000;45 
0-0-19-939000;40 
0-0-19-941000;41 
0-0-19-943000;-41 
0-0-19-945000;-73 
0-0-19-948000;-95 
0-0-19-950000;-133 
0-0-19-952000;-136 
0-0-19-954000;-138 
0-0-19-956000;-136 
0-0-19-958000;-111 
0-0-19-959000;-92 
0-0-19-961000;-84 
0-0-19-963000;-138 
0-0-19-965000;-108 
0-0-19-967000;-109 
0-0-19-969000;-36 
0-0-19-971000;-22 
0-0-19-973000;47 
0-0-19-975000;91 
0-0-19-977000;143 
0-0-19-979000;130 
0-0-19-982000;117 
0-0-19-984000;92 
0-0-19-986000;72 
0-0-19-988000;57 
0-0-19-990000;34 
0-0-19-992000;30 
0-0-19-994000;62 
0-0-19-996000;67 
0-0-19-998000;113 
0-0-19-999000;117 
0-0-20-001000;88 
0-0-20-003000;63 
0-0-20-005000;56 
0-0-20-007000;16 
0-0-20-009000;29 
0-0-20-022000;108 
0-0-20-024000;56 
0-0-20-026000;71 
0-0-20-028000;13 
0-0-20-030000;25 
0-0-20-032000;32 
0-0-20-034000;56 
0-0-20-036000;78 
0-0-20-038000;81 
0-0-20-040000;117 
0-0-20-041000;80 
0-0-20-043000;71 
0-0-20-045000;47 
0-0-20-047000;3 
0-0-20-049000;31 
0-0-20-052000;21 
0-0-20-054000;71 
0-0-20-056000;46 
0-0-20-058000;85 
0-0-20-060000;92 
0-0-20-062000;64 
0-0-20-064000;56 
0-0-20-066000;13 
0-0-20-068000;18 
0-0-20-070000;-6 
0-0-20-072000;48 
0-0-20-074000;22 
0-0-20-076000;72 
0-0-20-080000;102 
0-0-20-082000;75 
0-0-20-083000;56 
0-0-20-086000;23 
0-0-20-088000;-1 
0-0-20-090000;6 
0-0-20-092000;19 
0-0-20-094000;7 
0-0-20-096000;48 
0-0-20-098000;91 
0-0-20-100000;85 
0-0-20-102000;69 
0-0-20-104000;41 
0-0-20-106000;6 
0-0-20-108000;6 
0-0-20-110000;0 
0-0-20-112000;7 
0-0-20-114000;30 
0-0-20-116000;39 
0-0-20-118000;102 
0-0-20-121000;57 
0-0-20-123000;61 
0-0-20-124000;29 
0-0-20-126000;5 
0-0-20-128000;-18 
0-0-20-130000;11 
0-0-20-132000;-12 
0-0-20-134000;25 
0-0-20-136000;44 
0-0-20-138000;81 
0-0-20-140000;72 
0-0-20-142000;55 
0-0-20-144000;26 
0-0-20-146000;1 
0-0-20-148000;3 
0-0-20-150000;-27 
0-0-20-152000;14 
0-0-20-155000;9 
0-0-20-157000;70 
0-0-20-159000;55 
0-0-20-161000;73 
0-0-20-163000;49 
0-0-20-165000;32 
0-0-20-166000;-6 
0-0-20-168000;-17 
0-0-20-170000;41 
0-0-20-172000;-7 
0-0-20-174000;37 
0-0-20-176000;46 
0-0-20-178000;67 
0-0-20-180000;62 
0-0-20-182000;63 
0-0-20-184000;35 
0-0-20-186000;6 
0-0-20-189000;-20 
0-0-20-191000;6 
0-0-20-193000;-1 
0-0-20-195000;48 
0-0-20-197000;36 
0-0-20-199000;81 
0-0-20-201000;65 
0-0-20-203000;81 
0-0-20-205000;6 
0-0-20-207000;13 
0-0-20-208000;-4 
0-0-20-210000;14 
0-0-20-212000;24 
0-0-20-214000;7 
0-0-20-216000;55 
0-0-20-218000;70 
0-0-20-220000;73 
0-0-20-222000;71 
0-0-20-235000;49 
0-0-20-237000;61 
0-0-20-239000;74 
0-0-20-241000;73 
0-0-20-243000;43 
0-0-20-245000;32 
0-0-20-247000;19 
0-0-20-249000;10 
0-0-20-250000;15 
0-0-20-252000;21 
0-0-20-254000;40 
0-0-20-256000;76 
0-0-20-259000;74 
0-0-20-261000;107 
0-0-20-263000;39 
0-0-20-265000;32 
0-0-20-267000;16 
0-0-20-269000;-1 
0-0-20-271000;7 
0-0-20-273000;21 
0-0-20-275000;46 
0-0-20-277000;77 
0-0-20-279000;70 
0-0-20-281000;78 
0-0-20-283000;45 
0-0-20-285000;28 
0-0-20-287000;28 
0-0-20-289000;-19 
0-0-20-291000;-9 
0-0-20-293000;24 
0-0-20-295000;58 
0-0-20-297000;73 
0-0-20-299000;80 
0-0-20-301000;79 
0-0-20-303000;40 
0-0-20-305000;27 
0-0-20-307000;22 
0-0-20-309000;-10 
0-0-20-311000;9 
0-0-20-313000;16 
0-0-20-315000;70 
0-0-20-317000;51 
0-0-20-319000;92 
0-0-20-321000;73 
0-0-20-323000;57 
0-0-20-325000;35 
0-0-20-328000;10 
0-0-20-330000;-10 
0-0-20-332000;13 
0-0-20-333000;28 
0-0-20-335000;45 
0-0-20-337000;53 
0-0-20-339000;88 
0-0-20-341000;54 
0-0-20-343000;65 
0-0-20-345000;4 
0-0-20-347000;-4 
0-0-20-349000;-11 
0-0-20-351000;13 
0-0-20-353000;32 
0-0-20-355000;43 
0-0-20-357000;55 
0-0-20-359000;84 
0-0-20-362000;89 
0-0-20-364000;24 
0-0-20-366000;27 
0-0-20-368000;-13 
0-0-20-370000;0 
0-0-20-372000;13 
0-0-20-374000;19 
0-0-20-375000;32 
0-0-20-377000;75 
0-0-20-379000;74 
0-0-20-381000;69 
0-0-20-383000;29 
0-0-20-385000;23 
0-0-20-387000;2 
0-0-20-389000;-3 
0-0-20-391000;21 
0-0-20-393000;-2 
0-0-20-396000;50 
0-0-20-398000;55 
0-0-20-400000;95 
0-0-20-402000;40 
0-0-20-404000;49 
0-0-20-406000;1 
0-0-20-408000;17 
0-0-20-410000;-8 
0-0-20-412000;-3 
0-0-20-414000;29 
0-0-20-416000;36 
0-0-20-417000;76 
0-0-20-419000;62 
0-0-20-421000;68 
0-0-20-423000;29 
0-0-20-425000;30 
0-0-20-427000;-28 
0-0-20-429000;5 
0-0-20-432000;-1 
0-0-20-434000;9 
0-0-20-446000;-3 
0-0-20-448000;-25 
0-0-20-450000;-4 
0-0-20-452000;-15 
0-0-20-454000;25 
0-0-20-456000;46 
0-0-20-458000;48 
0-0-20-459000;70 
0-0-20-461000;40 
0-0-20-463000;47 
0-0-20-466000;-6 
0-0-20-468000;-28 
0-0-20-470000;-11 
0-0-20-472000;10 
0-0-20-474000;27 
0-0-20-476000;38 
0-0-20-478000;35 
0-0-20-480000;71 
0-0-20-482000;45 
0-0-20-484000;53 
0-0-20-486000;-24 
0-0-20-488000;-14 
0-0-20-490000;-18 
0-0-20-492000;17 
0-0-20-494000;8 
0-0-20-496000;47 
0-0-20-498000;77 
0-0-20-500000;66 
0-0-20-502000;55 
0-0-20-506000;1 
0-0-20-508000;8 
0-0-20-510000;21 
0-0-20-512000;-3 
0-0-20-514000;49 
0-0-20-516000;64 
0-0-20-518000;90 
0-0-20-520000;91 
0-0-20-522000;71 
0-0-20-524000;39 
0-0-20-526000;15 
0-0-20-528000;-2 
0-0-20-530000;33 
0-0-20-532000;-1 
0-0-20-535000;38 
0-0-20-537000;62 
0-0-20-539000;90 
0-0-20-541000;87 
0-0-20-542000;51 
0-0-20-544000;50 
0-0-20-546000;6 
0-0-20-548000;18 
0-0-20-550000;12 
0-0-20-552000;13 
0-0-20-554000;49 
0-0-20-556000;67 
0-0-20-558000;82 
0-0-20-560000;90 
0-0-20-562000;52 
0-0-20-564000;37 
0-0-20-566000;12 
0-0-20-569000;3 
0-0-20-571000;-9 
0-0-20-573000;9 
0-0-20-575000;43 
0-0-20-577000;83 
0-0-20-579000;52 
0-0-20-581000;92 
0-0-20-583000;63 
0-0-20-584000;40 
0-0-20-586000;26 
0-0-20-588000;0 
0-0-20-590000;8 
0-0-20-592000;-13 
0-0-20-594000;16 
0-0-20-596000;-7 
0-0-20-598000;-10 
0-0-20-600000;-23 
0-0-20-602000;-53 
0-0-20-605000;-96 
0-0-20-607000;-138 
0-0-20-609000;-172 
0-0-20-611000;-172 
0-0-20-613000;-163 
0-0-20-615000;-141 
0-0-20-617000;-144 
0-0-20-619000;-82 
0-0-20-621000;-65 
0-0-20-623000;-60 
0-0-20-624000;-44 
0-0-20-626000;-24 
0-0-20-628000;18 
0-0-20-630000;26 
0-0-20-632000;94 
0-0-20-634000;85 
0-0-20-636000;112 
0-0-20-639000;126 
0-0-20-641000;116 
0-0-20-643000;96 
0-0-20-645000;52 
0-0-20-647000;49 
0-0-20-657000;103 
0-0-20-659000;115 
0-0-20-661000;114 
0-0-20-663000;84 
0-0-20-665000;55 
0-0-20-666000;49 
0-0-20-668000;52 
0-0-20-670000;26 
0-0-20-673000;53 
0-0-20-675000;73 
0-0-20-677000;82 
0-0-20-679000;123 
0-0-20-681000;100 
0-0-20-683000;85 
0-0-20-685000;31 
0-0-20-687000;51 
0-0-20-689000;23 
0-0-20-691000;31 
0-0-20-693000;40 
0-0-20-695000;61 
0-0-20-697000;89 
0-0-20-699000;115 
0-0-20-701000;65 
0-0-20-703000;79 
0-0-20-705000;59 
0-0-20-708000;31 
0-0-20-709000;34 
0-0-20-711000;14 
0-0-20-713000;39 
0-0-20-715000;67 
0-0-20-717000;68 
0-0-20-719000;100 
0-0-20-721000;85 
0-0-20-723000;47 
0-0-20-725000;52 
0-0-20-727000;7 
0-0-20-729000;-2 
0-0-20-731000;25 
0-0-20-733000;49 
0-0-20-735000;48 
0-0-20-737000;88 
0-0-20-739000;110 
0-0-20-742000;90 
0-0-20-744000;50 
0-0-20-746000;41 
0-0-20-748000;-1 
0-0-20-749000;-9 
0-0-20-751000;12 
0-0-20-753000;43 
0-0-20-755000;39 
0-0-20-757000;78 
0-0-20-759000;65 
0-0-20-761000;75 
0-0-20-763000;67 
0-0-20-765000;7 
0-0-20-767000;11 
0-0-20-769000;-23 
0-0-20-771000;23 
0-0-20-773000;26 
0-0-20-776000;33 
0-0-20-778000;61 
0-0-20-780000;103 
0-0-20-782000;58 
0-0-20-784000;17 
0-0-20-786000;12 
0-0-20-788000;-16 
0-0-20-790000;-21 
0-0-20-791000;8 
0-0-20-793000;6 
0-0-20-795000;37 
0-0-20-797000;59 
0-0-20-799000;81 
0-0-20-801000;41 
0-0-20-803000;44 
0-0-20-805000;-1 
0-0-20-807000;-24 
0-0-20-809000;4 
0-0-20-812000;-13 
0-0-20-814000;6 
0-0-20-816000;37 
0-0-20-818000;80 
0-0-20-820000;58 
0-0-20-822000;58 
0-0-20-824000;44 
0-0-20-826000;0 
0-0-20-828000;-13 
0-0-20-830000;13 
0-0-20-832000;-14 
0-0-20-833000;12 
0-0-20-835000;40 
0-0-20-837000;89 
0-0-20-839000;63 
0-0-20-841000;48 
0-0-20-843000;47 
0-0-20-846000;28 
0-0-20-848000;-6 
0-0-20-850000;-41 
0-0-20-852000;15 
0-0-20-854000;27 
0-0-20-856000;37 
0-0-20-868000;14 
0-0-20-870000;-2 
0-0-20-872000;3 
0-0-20-874000;33 
0-0-20-875000;83 
0-0-20-877000;60 
0-0-20-880000;76 
0-0-20-882000;75 
0-0-20-884000;52 
0-0-20-886000;10 
0-0-20-888000;-4 
0-0-20-890000;-7 
0-0-20-892000;16 
0-0-20-894000;44 
0-0-20-896000;39 
0-0-20-898000;88 
0-0-20-900000;81 
0-0-20-902000;70 
0-0-20-904000;44 
0-0-20-906000;13 
0-0-20-908000;-7 
0-0-20-910000;-3 
0-0-20-912000;22 
0-0-20-915000;17 
0-0-20-916000;56 
0-0-20-918000;77 
0-0-20-920000;77 
0-0-20-922000;87 
0-0-20-924000;27 
0-0-20-926000;13 
0-0-20-930000;14 
0-0-20-932000;-6 
0-0-20-934000;43 
0-0-20-936000;51 
0-0-20-938000;62 
0-0-20-940000;97 
0-0-20-942000;64 
0-0-20-944000;28 
0-0-20-946000;17 
0-0-20-949000;14 
0-0-20-951000;-22 
0-0-20-953000;23 
0-0-20-955000;32 
0-0-20-957000;43 
0-0-20-958000;76 
0-0-20-960000;68 
0-0-20-962000;41 
0-0-20-964000;41 
0-0-20-966000;13 
0-0-20-968000;8 
0-0-20-970000;-8 
0-0-20-972000;6 
0-0-20-974000;24 
0-0-20-976000;80 
0-0-20-978000;66 
0-0-20-980000;86 
0-0-20-983000;69 
0-0-20-985000;25 
0-0-20-987000;44 
0-0-20-989000;1 
0-0-20-991000;-12 
0-0-20-993000;14 
0-0-20-995000;60 
0-0-20-997000;55 
0-0-20-999000;70 
0-0-21-000000;76 
0-0-21-002000;54 
0-0-21-004000;30 
0-0-21-006000;31 
0-0-21-008000;-5 
0-0-21-010000;-5 
0-0-21-012000;16 
0-0-21-014000;32 
0-0-21-016000;37 
0-0-21-019000;76 
0-0-21-021000;87 
0-0-21-023000;50 
0-0-21-025000;26 
0-0-21-027000;17 
0-0-21-029000;22 
0-0-21-031000;-3 
0-0-21-033000;18 
0-0-21-035000;43 
0-0-21-037000;51 
0-0-21-039000;77 
0-0-21-041000;96 
0-0-21-042000;48 
0-0-21-044000;27 
0-0-21-046000;4 
0-0-21-048000;2 
0-0-21-050000;-4 
0-0-21-053000;18 
0-0-21-055000;24 
0-0-21-057000;71 
0-0-21-059000;82 
0-0-21-061000;87 
0-0-21-063000;54 
0-0-21-065000;34 
0-0-21-067000;-4 
0-0-21-069000;-8 
0-0-21-081000;80 
0-0-21-083000;50 
0-0-21-084000;3 
0-0-21-087000;10 
0-0-21-089000;4 
0-0-21-091000;15 
0-0-21-093000;-12 
0-0-21-095000;16 
0-0-21-097000;71 
0-0-21-099000;97 
0-0-21-101000;56 
0-0-21-103000;39 
0-0-21-105000;14 
0-0-21-107000;27 
0-0-21-109000;-17 
0-0-21-111000;-13 
0-0-21-113000;15 
0-0-21-115000;36 
0-0-21-117000;61 
0-0-21-119000;101 
0-0-21-122000;53 
0-0-21-124000;23 
0-0-21-125000;36 
0-0-21-127000;-11 
0-0-21-129000;-26 
0-0-21-131000;-5 
0-0-21-133000;16 
0-0-21-135000;28 
0-0-21-137000;66 
0-0-21-139000;64 
0-0-21-141000;43 
0-0-21-143000;53 
0-0-21-145000;24 
0-0-21-147000;-13 
0-0-21-149000;1 
0-0-21-151000;-2 
0-0-21-153000;25 
0-0-21-156000;36 
0-0-21-158000;59 
0-0-21-160000;73 
0-0-21-162000;80 
0-0-21-164000;63 
0-0-21-166000;17 
0-0-21-167000;4 
0-0-21-169000;11 
0-0-21-171000;12 
0-0-21-173000;24 
0-0-21-175000;55 
0-0-21-177000;77 
0-0-21-179000;73 
0-0-21-181000;67 
0-0-21-183000;75 
0-0-21-185000;13 
0-0-21-187000;-5 
0-0-21-189000;5 
0-0-21-192000;24 
0-0-21-194000;12 
0-0-21-196000;36 
0-0-21-198000;77 
0-0-21-200000;58 
0-0-21-202000;85 
0-0-21-204000;41 
0-0-21-206000;10 
0-0-21-208000;13 
0-0-21-209000;25 
0-0-21-211000;-2 
0-0-21-213000;25 
0-0-21-215000;56 
0-0-21-217000;65 
0-0-21-219000;77 
0-0-21-221000;77 
0-0-21-223000;41 
0-0-21-226000;15 
0-0-21-228000;13 
0-0-21-230000;4 
0-0-21-232000;1 
0-0-21-234000;31 
0-0-21-236000;55 
0-0-21-238000;102 
0-0-21-240000;79 
0-0-21-242000;82 
0-0-21-244000;31 
0-0-21-246000;10 
0-0-21-248000;-2 
0-0-21-249000;-57 
0-0-21-251000;-45 
0-0-21-253000;-33 
0-0-21-255000;-51 
0-0-21-257000;-42 
0-0-21-260000;-60 
0-0-21-262000;-92 
0-0-21-264000;-125 
0-0-21-266000;-148 
0-0-21-268000;-160 
0-0-21-270000;-191 
0-0-21-272000;-149 
0-0-21-274000;-134 
0-0-21-276000;-58 
0-0-21-278000;-21 
0-0-21-280000;20 
0-0-21-291000;71 
0-0-21-294000;82 
0-0-21-296000;86 
0-0-21-298000;96 
0-0-21-300000;96 
0-0-21-302000;114 
0-0-21-304000;61 
0-0-21-306000;36 
0-0-21-308000;76 
0-0-21-310000;41 
0-0-21-312000;39 
0-0-21-314000;76 
0-0-21-316000;74 
0-0-21-318000;107 
0-0-21-320000;97 
0-0-21-322000;120 
0-0-21-324000;69 
0-0-21-326000;38 
0-0-21-329000;33 
0-0-21-331000;34 
0-0-21-333000;46 
0-0-21-334000;64 
0-0-21-336000;82 
0-0-21-338000;90 
0-0-21-340000;124 
0-0-21-342000;86 
0-0-21-344000;50 
0-0-21-346000;44 
0-0-21-348000;29 
0-0-21-350000;17 
0-0-21-352000;29 
0-0-21-356000;70 
0-0-21-358000;109 
0-0-21-360000;103 
0-0-21-363000;76 
0-0-21-365000;59 
0-0-21-367000;12 
0-0-21-369000;30 
0-0-21-371000;13 
0-0-21-373000;12 
0-0-21-374000;27 
0-0-21-376000;63 
0-0-21-378000;83 
0-0-21-380000;87 
0-0-21-382000;72 
0-0-21-384000;26 
0-0-21-386000;42 
0-0-21-388000;-4 
0-0-21-390000;-8 
0-0-21-392000;23 
0-0-21-394000;42 
0-0-21-396000;42 
0-0-21-399000;102 
0-0-21-401000;65 
0-0-21-403000;48 
0-0-21-405000;44 
0-0-21-407000;17 
0-0-21-409000;-20 
0-0-21-411000;11 
0-0-21-413000;13 
0-0-21-415000;27 
0-0-21-416000;57 
0-0-21-418000;68 
0-0-21-420000;63 
0-0-21-422000;56 
0-0-21-424000;30 
0-0-21-426000;-10 
0-0-21-428000;-8 
0-0-21-430000;-4 
0-0-21-433000;9 
0-0-21-435000;33 
0-0-21-437000;66 
0-0-21-439000;56 
0-0-21-441000;65 
0-0-21-443000;75 
0-0-21-445000;32 
0-0-21-447000;-2 
0-0-21-449000;-11 
0-0-21-451000;10 
0-0-21-453000;6 
0-0-21-455000;7 
0-0-21-457000;48 
0-0-21-458000;86 
0-0-21-460000;60 
0-0-21-462000;45 
0-0-21-464000;5 
0-0-21-467000;6 
0-0-21-469000;-25 
0-0-21-471000;4 
0-0-21-473000;5 
0-0-21-475000;3 
0-0-21-477000;55 
0-0-21-479000;65 
0-0-21-481000;64 
0-0-21-483000;36 
0-0-21-485000;8 
0-0-21-487000;-11 
0-0-21-489000;-4 
0-0-21-491000;18 
0-0-21-493000;-12 
0-0-21-503000;40 
0-0-21-505000;24 
0-0-21-507000;0 
0-0-21-509000;11 
0-0-21-511000;0 
0-0-21-513000;3 
0-0-21-515000;44 
0-0-21-517000;70 
0-0-21-519000;72 
0-0-21-521000;82 
0-0-21-523000;49 
0-0-21-525000;16 
0-0-21-527000;15 
0-0-21-529000;-12 
0-0-21-531000;-3 
0-0-21-533000;31 
0-0-21-536000;40 
0-0-21-538000;62 
0-0-21-540000;74 
0-0-21-541000;85 
0-0-21-543000;52 
0-0-21-545000;39 
0-0-21-547000;22 
0-0-21-549000;-9 
0-0-21-551000;11 
0-0-21-553000;41 
0-0-21-555000;44 
0-0-21-557000;67 
0-0-21-559000;80 
0-0-21-561000;67 
0-0-21-563000;69 
0-0-21-565000;22 
0-0-21-567000;-3 
0-0-21-570000;7 
0-0-21-572000;7 
0-0-21-574000;18 
0-0-21-576000;64 
0-0-21-578000;56 
0-0-21-580000;68 
0-0-21-582000;64 
0-0-21-583000;42 
0-0-21-585000;0 
0-0-21-587000;11 
0-0-21-589000;0 
0-0-21-591000;-3 
0-0-21-593000;33 
0-0-21-595000;48 
0-0-21-597000;57 
0-0-21-599000;71 
0-0-21-601000;95 
0-0-21-603000;49 
0-0-21-606000;14 
0-0-21-608000;3 
0-0-21-610000;21 
0-0-21-612000;-1 
0-0-21-614000;26 
0-0-21-616000;33 
0-0-21-618000;66 
0-0-21-620000;79 
0-0-21-622000;88 
0-0-21-624000;31 
0-0-21-625000;8 
0-0-21-627000;8 
0-0-21-629000;16 
0-0-21-631000;-3 
0-0-21-633000;28 
0-0-21-635000;51 
0-0-21-637000;62 
0-0-21-640000;84 
0-0-21-642000;70 
0-0-21-644000;52 
0-0-21-646000;10 
0-0-21-648000;10 
0-0-21-650000;-7 
0-0-21-652000;19 
0-0-21-654000;25 
0-0-21-656000;44 
0-0-21-658000;75 
0-0-21-660000;100 
0-0-21-662000;45 
0-0-21-664000;48 
0-0-21-666000;29 
0-0-21-667000;3 
0-0-21-669000;-15 
0-0-21-671000;12 
0-0-21-674000;32 
0-0-21-676000;69 
0-0-21-678000;76 
0-0-21-680000;86 
0-0-21-682000;68 
0-0-21-684000;35 
0-0-21-686000;30 
0-0-21-688000;-1 
0-0-21-690000;-1 
0-0-21-692000;12 
0-0-21-694000;28 
0-0-21-696000;51 
0-0-21-698000;69 
0-0-21-700000;76 
0-0-21-702000;68 
0-0-21-714000;41 
0-0-21-716000;62 
0-0-21-718000;54 
0-0-21-720000;83 
0-0-21-722000;75 
0-0-21-724000;9 
0-0-21-726000;6 
0-0-21-728000;8 
0-0-21-730000;-11 
0-0-21-732000;18 
0-0-21-734000;44 
0-0-21-736000;42 
0-0-21-738000;62 
0-0-21-740000;93 
0-0-21-743000;40 
0-0-21-745000;37 
0-0-21-747000;23 
0-0-21-749000;-6 
0-0-21-750000;-24 
0-0-21-752000;29 
0-0-21-754000;19 
0-0-21-756000;32 
0-0-21-758000;76 
0-0-21-760000;90 
0-0-21-762000;33 
0-0-21-764000;35 
0-0-21-766000;15 
0-0-21-768000;-12 
0-0-21-770000;5 
0-0-21-772000;-4 
0-0-21-774000;27 
0-0-21-776000;36 
0-0-21-781000;51 
0-0-21-783000;64 
0-0-21-785000;19 
0-0-21-787000;7 
0-0-21-789000;-24 
0-0-21-791000;3 
0-0-21-792000;17 
0-0-21-794000;24 
0-0-21-796000;45 
0-0-21-798000;69 
0-0-21-800000;68 
0-0-21-802000;60 
0-0-21-804000;24 
0-0-21-806000;22 
0-0-21-808000;3 
0-0-21-810000;1 
0-0-21-813000;19 
0-0-21-815000;35 
0-0-21-817000;79 
0-0-21-819000;70 
0-0-21-821000;85 
0-0-21-823000;51 
0-0-21-825000;50 
0-0-21-827000;18 
0-0-21-829000;-10 
0-0-21-831000;16 
0-0-21-833000;19 
0-0-21-834000;28 
0-0-21-836000;94 
0-0-21-838000;62 
0-0-21-840000;76 
0-0-21-842000;64 
0-0-21-844000;34 
0-0-21-847000;7 
0-0-21-849000;-22 
0-0-21-851000;11 
0-0-21-853000;21 
0-0-21-855000;35 
0-0-21-857000;41 
0-0-21-859000;69 
0-0-21-861000;83 
0-0-21-863000;61 
0-0-21-865000;27 
0-0-21-867000;5 
0-0-21-869000;3 
0-0-21-871000;3 
0-0-21-873000;15 
0-0-21-874000;31 
0-0-21-876000;100 
0-0-21-878000;70 
0-0-21-881000;85 
0-0-21-883000;66 
0-0-21-885000;40 
0-0-21-887000;8 
0-0-21-889000;16 
0-0-21-891000;15 
0-0-21-893000;47 
0-0-21-895000;57 
0-0-21-897000;60 
0-0-21-899000;82 
0-0-21-901000;90 
0-0-21-903000;24 
0-0-21-905000;-1 
0-0-21-907000;-59 
0-0-21-909000;-52 
0-0-21-911000;-104 
0-0-21-913000;-89 
0-0-21-916000;-110 
0-0-21-927000;-139 
0-0-21-929000;-144 
0-0-21-931000;-121 
0-0-21-933000;-81 
0-0-21-935000;10 
0-0-21-937000;67 
0-0-21-939000;91 
0-0-21-941000;120 
0-0-21-943000;107 
0-0-21-945000;73 
0-0-21-947000;81 
0-0-21-950000;26 
0-0-21-952000;58 
0-0-21-954000;43 
0-0-21-956000;102 
0-0-21-958000;75 
0-0-21-959000;104 
0-0-21-961000;97 
0-0-21-963000;76 
0-0-21-965000;58 
0-0-21-967000;42 
0-0-21-969000;36 
0-0-21-971000;22 
0-0-21-973000;92 
0-0-21-975000;83 
0-0-21-977000;79 
0-0-21-979000;124 
0-0-21-981000;80 
0-0-21-983000;91 
0-0-21-986000;36 
0-0-21-988000;27 
0-0-21-990000;13 
0-0-21-992000;33 
0-0-21-994000;38 
0-0-21-996000;50 
0-0-21-998000;99 
0-0-21-999000;97 
0-0-22-001000;114 
0-0-22-003000;67 
0-0-22-005000;40 
0-0-22-007000;25 
0-0-22-009000;6 
0-0-22-011000;24 
0-0-22-013000;60 
0-0-22-015000;40 
0-0-22-017000;87 
0-0-22-020000;95 
0-0-22-022000;90 
0-0-22-024000;58 
0-0-22-026000;30 
0-0-22-028000;21 
0-0-22-030000;24 
0-0-22-032000;20 
0-0-22-034000;27 
0-0-22-036000;61 
0-0-22-038000;64 
0-0-22-040000;112 
0-0-22-041000;72 
0-0-22-043000;28 
0-0-22-045000;28 
0-0-22-047000;29 
0-0-22-049000;-3 
0-0-22-051000;14 
0-0-22-054000;39 
0-0-22-056000;35 
0-0-22-058000;73 
0-0-22-060000;106 
0-0-22-062000;58 
0-0-22-064000;31 
0-0-22-066000;32 
0-0-22-068000;4 
0-0-22-070000;-21 
0-0-22-072000;7 
0-0-22-074000;19 
0-0-22-076000;57 
0-0-22-078000;81 
0-0-22-080000;72 
0-0-22-082000;60 
0-0-22-083000;43 
0-0-22-085000;29 
0-0-22-088000;-4 
0-0-22-090000;5 
