timestamp;value
0-0-8-174000;1259 
0-0-8-176000;1243 
0-0-8-178000;1257 
0-0-8-180000;1256 
0-0-8-182000;1241 
0-0-8-184000;1267 
0-0-8-186000;1240 
0-0-8-188000;1257 
0-0-8-190000;1237 
0-0-8-192000;1260 
0-0-8-194000;1233 
0-0-8-196000;1269 
0-0-8-198000;1249 
0-0-8-200000;1241 
0-0-8-203000;1235 
0-0-8-205000;1249 
0-0-8-207000;1260 
0-0-8-208000;1246 
0-0-8-210000;1264 
0-0-8-212000;1260 
0-0-8-214000;1249 
0-0-8-216000;1267 
0-0-8-218000;1263 
0-0-8-220000;1254 
0-0-8-222000;1287 
0-0-8-224000;1278 
0-0-8-226000;1265 
0-0-8-228000;1269 
0-0-8-230000;1276 
0-0-8-232000;1276 
0-0-8-234000;1267 
0-0-8-237000;1278 
0-0-8-239000;1271 
0-0-8-241000;1238 
0-0-8-243000;1288 
0-0-8-245000;1273 
0-0-8-247000;1272 
0-0-8-249000;1274 
0-0-8-250000;1274 
0-0-8-252000;1282 
0-0-8-254000;1272 
0-0-8-256000;1266 
0-0-8-258000;1275 
0-0-8-260000;1266 
0-0-8-262000;1274 
0-0-8-264000;1268 
0-0-8-266000;1277 
0-0-8-268000;1253 
0-0-8-271000;1281 
0-0-8-273000;1265 
0-0-8-275000;23 
0-0-8-277000;12 
0-0-8-279000;2 
0-0-8-281000;12 
0-0-8-283000;-11 
0-0-8-285000;22 
0-0-8-287000;-16 
0-0-8-289000;10 
0-0-8-291000;15 
0-0-8-292000;6 
0-0-8-294000;2 
0-0-8-296000;31 
0-0-8-298000;10 
0-0-8-300000;14 
0-0-8-302000;17 
0-0-8-304000;-21 
0-0-8-307000;-2 
0-0-8-309000;-17 
0-0-8-311000;-51 
0-0-8-313000;-61 
0-0-8-315000;-111 
0-0-8-317000;-112 
0-0-8-319000;-147 
0-0-8-321000;-172 
0-0-8-323000;-173 
0-0-8-325000;-199 
0-0-8-327000;-168 
0-0-8-329000;-182 
0-0-8-331000;-159 
0-0-8-333000;-156 
0-0-8-334000;-112 
0-0-8-336000;-72 
0-0-8-338000;-30 
0-0-8-341000;6 
0-0-8-343000;38 
0-0-8-345000;61 
0-0-8-347000;40 
0-0-8-349000;58 
0-0-8-351000;40 
0-0-8-353000;38 
0-0-8-355000;24 
0-0-8-357000;29 
0-0-8-359000;22 
0-0-8-361000;13 
0-0-8-363000;29 
0-0-8-365000;17 
0-0-8-367000;44 
0-0-8-369000;34 
0-0-8-371000;13 
0-0-8-373000;53 
0-0-8-383000;28 
0-0-8-385000;29 
0-0-8-387000;21 
0-0-8-389000;22 
0-0-8-391000;33 
0-0-8-393000;13 
0-0-8-395000;29 
0-0-8-397000;10 
0-0-8-399000;3 
0-0-8-401000;24 
0-0-8-403000;21 
0-0-8-405000;10 
0-0-8-407000;14 
0-0-8-410000;11 
0-0-8-412000;23 
0-0-8-414000;4 
0-0-8-416000;26 
0-0-8-417000;-3 
0-0-8-419000;15 
0-0-8-421000;16 
0-0-8-423000;7 
0-0-8-425000;1 
0-0-8-427000;15 
0-0-8-429000;20 
0-0-8-431000;8 
0-0-8-433000;17 
0-0-8-435000;4 
0-0-8-437000;10 
0-0-8-439000;0 
0-0-8-441000;8 
0-0-8-444000;0 
0-0-8-446000;14 
0-0-8-448000;5 
0-0-8-450000;11 
0-0-8-452000;-6 
0-0-8-454000;23 
0-0-8-456000;-7 
0-0-8-458000;16 
0-0-8-459000;-10 
0-0-8-461000;6 
0-0-8-463000;-23 
0-0-8-465000;-9 
0-0-8-467000;3 
0-0-8-469000;-9 
0-0-8-471000;-13 
0-0-8-473000;-1 
0-0-8-475000;-1 
0-0-8-478000;-9 
0-0-8-480000;-11 
0-0-8-482000;-11 
0-0-8-484000;-1 
0-0-8-486000;-1 
0-0-8-488000;-1 
0-0-8-490000;-15 
0-0-8-492000;-11 
0-0-8-494000;-11 
0-0-8-496000;-12 
0-0-8-498000;-14 
0-0-8-499000;-12 
0-0-8-501000;-46 
0-0-8-503000;4 
0-0-8-505000;-29 
0-0-8-507000;-5 
0-0-8-509000;-32 
0-0-8-511000;-10 
0-0-8-514000;-28 
0-0-8-516000;-11 
0-0-8-518000;-48 
0-0-8-520000;-5 
0-0-8-522000;-20 
0-0-8-524000;-30 
0-0-8-526000;-5 
0-0-8-528000;-9 
0-0-8-530000;-34 
0-0-8-532000;-7 
0-0-8-534000;-12 
0-0-8-536000;-23 
0-0-8-538000;-16 
0-0-8-540000;-28 
0-0-8-541000;-16 
0-0-8-543000;-7 
0-0-8-545000;-27 
0-0-8-548000;-22 
0-0-8-550000;-6 
0-0-8-552000;-22 
0-0-8-554000;-6 
0-0-8-556000;-41 
0-0-8-558000;-11 
0-0-8-560000;-17 
0-0-8-562000;-12 
0-0-8-564000;-4 
0-0-8-566000;-19 
0-0-8-568000;15 
0-0-8-570000;-6 
0-0-8-572000;5 
0-0-8-574000;-4 
0-0-8-576000;11 
0-0-8-578000;-5 
0-0-8-580000;10 
0-0-8-583000;-5 
0-0-8-592000;24 
0-0-8-596000;27 
0-0-8-598000;11 
0-0-8-600000;-2 
0-0-8-602000;0 
0-0-8-604000;-8 
0-0-8-606000;20 
0-0-8-608000;0 
0-0-8-610000;9 
0-0-8-612000;2 
0-0-8-614000;-6 
0-0-8-617000;5 
0-0-8-619000;-3 
0-0-8-621000;22 
0-0-8-623000;-16 
0-0-8-624000;16 
0-0-8-626000;-6 
0-0-8-628000;3 
0-0-8-630000;10 
0-0-8-632000;10 
0-0-8-634000;6 
0-0-8-636000;11 
0-0-8-638000;1 
0-0-8-640000;-11 
0-0-8-642000;13 
0-0-8-644000;12 
0-0-8-646000;2 
0-0-8-648000;-1 
0-0-8-651000;4 
0-0-8-653000;5 
0-0-8-655000;-20 
0-0-8-657000;15 
0-0-8-659000;-7 
0-0-8-661000;-18 
0-0-8-663000;6 
0-0-8-665000;3 
0-0-8-666000;-2 
0-0-8-668000;18 
0-0-8-670000;9 
0-0-8-672000;-6 
0-0-8-674000;11 
0-0-8-676000;-18 
0-0-8-678000;-25 
0-0-8-680000;20 
0-0-8-682000;-6 
0-0-8-685000;4 
0-0-8-687000;7 
0-0-8-689000;5 
0-0-8-691000;9 
0-0-8-693000;9 
0-0-8-695000;-6 
0-0-8-697000;9 
0-0-8-699000;-5 
0-0-8-701000;-5 
0-0-8-703000;4 
0-0-8-705000;-13 
0-0-8-707000;17 
0-0-8-708000;11 
0-0-8-710000;-6 
0-0-8-712000;8 
0-0-8-714000;-18 
0-0-8-716000;8 
0-0-8-718000;4 
0-0-8-721000;-16 
0-0-8-723000;7 
0-0-8-725000;16 
0-0-8-727000;9 
0-0-8-729000;10 
0-0-8-731000;-6 
0-0-8-733000;18 
0-0-8-735000;-4 
0-0-8-737000;6 
0-0-8-739000;-3 
0-0-8-741000;-6 
0-0-8-743000;-6 
0-0-8-745000;4 
0-0-8-747000;8 
0-0-8-749000;8 
0-0-8-750000;-10 
0-0-8-752000;-2 
0-0-8-755000;4 
0-0-8-757000;-4 
0-0-8-759000;3 
0-0-8-761000;-14 
0-0-8-763000;4 
0-0-8-765000;7 
0-0-8-767000;-5 
0-0-8-769000;17 
0-0-8-771000;-3 
0-0-8-773000;6 
0-0-8-775000;4 
0-0-8-777000;-4 
0-0-8-779000;-33 
0-0-8-781000;15 
0-0-8-783000;-3 
0-0-8-785000;-9 
0-0-8-787000;17 
0-0-8-790000;-13 
0-0-8-791000;6 
0-0-8-793000;6 
0-0-8-805000;0 
0-0-8-807000;13 
0-0-8-809000;-26 
0-0-8-811000;18 
0-0-8-813000;-11 
0-0-8-815000;12 
0-0-8-817000;-18 
0-0-8-819000;8 
0-0-8-821000;-19 
0-0-8-824000;10 
0-0-8-826000;11 
0-0-8-828000;3 
0-0-8-830000;3 
0-0-8-832000;-6 
0-0-8-833000;1 
0-0-8-835000;-21 
0-0-8-837000;-9 
0-0-8-839000;-26 
0-0-8-841000;-5 
0-0-8-843000;-14 
0-0-8-845000;-32 
0-0-8-847000;-2 
0-0-8-849000;-20 
0-0-8-851000;-12 
0-0-8-853000;-13 
0-0-8-855000;-24 
0-0-8-858000;-7 
0-0-8-860000;-16 
0-0-8-862000;-23 
0-0-8-864000;-35 
0-0-8-866000;1 
0-0-8-868000;-25 
0-0-8-870000;-7 
0-0-8-872000;-25 
0-0-8-874000;-21 
0-0-8-875000;-10 
0-0-8-877000;-28 
0-0-8-879000;-9 
0-0-8-881000;-33 
0-0-8-883000;-22 
0-0-8-885000;-26 
0-0-8-887000;-5 
0-0-8-889000;-25 
0-0-8-891000;5 
0-0-8-894000;-24 
0-0-8-896000;15 
0-0-8-898000;-11 
0-0-8-900000;23 
0-0-8-902000;-2 
0-0-8-904000;9 
0-0-8-906000;19 
0-0-8-908000;15 
0-0-8-910000;-9 
0-0-8-912000;25 
0-0-8-914000;22 
0-0-8-916000;-2 
0-0-8-917000;15 
0-0-8-919000;4 
0-0-8-921000;8 
0-0-8-923000;16 
0-0-8-925000;0 
0-0-8-928000;2 
0-0-8-930000;8 
0-0-8-932000;2 
0-0-8-934000;-3 
0-0-8-936000;14 
0-0-8-938000;-1 
0-0-8-940000;-18 
0-0-8-942000;8 
0-0-8-944000;7 
0-0-8-946000;5 
0-0-8-948000;-12 
0-0-8-950000;27 
0-0-8-952000;9 
0-0-8-954000;-3 
0-0-8-956000;-7 
0-0-8-958000;8 
0-0-8-959000;-13 
0-0-8-962000;6 
0-0-8-964000;6 
0-0-8-966000;-5 
0-0-8-968000;4 
0-0-8-970000;12 
0-0-8-972000;0 
0-0-8-974000;15 
0-0-8-976000;19 
0-0-8-978000;-5 
0-0-8-980000;11 
0-0-8-982000;-11 
0-0-8-984000;-29 
0-0-8-986000;-34 
0-0-8-988000;-69 
0-0-8-990000;-79 
0-0-8-992000;-118 
0-0-8-994000;-159 
0-0-8-997000;-146 
0-0-8-999000;-193 
0-0-9-000000;-177 
0-0-9-002000;-196 
0-0-9-004000;-171 
0-0-9-016000;11 
0-0-9-018000;32 
0-0-9-022000;63 
0-0-9-024000;40 
0-0-9-026000;55 
0-0-9-028000;62 
0-0-9-031000;36 
0-0-9-033000;17 
0-0-9-035000;38 
0-0-9-037000;18 
0-0-9-039000;27 
0-0-9-041000;11 
0-0-9-042000;27 
0-0-9-044000;36 
0-0-9-046000;34 
0-0-9-048000;19 
0-0-9-050000;43 
0-0-9-052000;23 
0-0-9-054000;16 
0-0-9-056000;34 
0-0-9-058000;26 
0-0-9-060000;3 
0-0-9-062000;26 
0-0-9-065000;31 
0-0-9-067000;18 
0-0-9-069000;38 
0-0-9-071000;-10 
0-0-9-073000;41 
0-0-9-075000;25 
0-0-9-077000;16 
0-0-9-079000;20 
0-0-9-081000;-10 
0-0-9-083000;15 
0-0-9-084000;23 
0-0-9-086000;11 
0-0-9-088000;36 
0-0-9-090000;10 
0-0-9-092000;3 
0-0-9-094000;23 
0-0-9-096000;-1 
0-0-9-098000;4 
0-0-9-101000;11 
0-0-9-103000;-2 
0-0-9-105000;10 
0-0-9-107000;-9 
0-0-9-109000;6 
0-0-9-111000;26 
0-0-9-113000;9 
0-0-9-115000;-6 
0-0-9-117000;11 
0-0-9-119000;1 
0-0-9-121000;-4 
0-0-9-123000;9 
0-0-9-124000;-11 
0-0-9-126000;1 
0-0-9-128000;12 
0-0-9-130000;2 
0-0-9-132000;-8 
0-0-9-135000;11 
0-0-9-137000;-6 
0-0-9-139000;-10 
0-0-9-141000;7 
0-0-9-143000;-10 
0-0-9-145000;-23 
0-0-9-147000;8 
0-0-9-149000;-2 
0-0-9-151000;-10 
0-0-9-153000;10 
0-0-9-155000;2 
0-0-9-157000;-21 
0-0-9-159000;-8 
0-0-9-161000;3 
0-0-9-163000;-20 
0-0-9-165000;6 
0-0-9-166000;-12 
0-0-9-169000;4 
0-0-9-171000;-18 
0-0-9-173000;-11 
0-0-9-175000;-16 
0-0-9-177000;-7 
0-0-9-179000;-25 
0-0-9-181000;-16 
0-0-9-183000;-40 
0-0-9-185000;-10 
0-0-9-187000;-21 
0-0-9-189000;7 
0-0-9-191000;-38 
0-0-9-193000;-11 
0-0-9-195000;-26 
0-0-9-197000;-15 
0-0-9-199000;-32 
0-0-9-201000;-6 
0-0-9-204000;-14 
0-0-9-206000;-6 
0-0-9-208000;-24 
0-0-9-209000;-21 
0-0-9-211000;2 
0-0-9-213000;-31 
0-0-9-215000;-20 
0-0-9-217000;-26 
0-0-9-227000;-7 
0-0-9-229000;-18 
0-0-9-231000;-18 
0-0-9-233000;-2 
0-0-9-235000;-20 
0-0-9-238000;-10 
0-0-9-240000;-11 
0-0-9-242000;-8 
0-0-9-244000;-24 
0-0-9-246000;-11 
0-0-9-248000;-6 
0-0-9-249000;1 
0-0-9-251000;2 
0-0-9-253000;12 
0-0-9-255000;4 
0-0-9-257000;4 
0-0-9-259000;14 
0-0-9-261000;-2 
0-0-9-263000;7 
0-0-9-265000;16 
0-0-9-267000;-12 
0-0-9-269000;17 
0-0-9-272000;13 
0-0-9-274000;-8 
0-0-9-276000;24 
0-0-9-278000;-1 
0-0-9-280000;3 
0-0-9-282000;6 
0-0-9-284000;16 
0-0-9-286000;-1 
0-0-9-288000;16 
0-0-9-290000;11 
0-0-9-291000;1 
0-0-9-293000;30 
0-0-9-295000;13 
0-0-9-297000;-3 
0-0-9-299000;9 
0-0-9-301000;-23 
0-0-9-303000;27 
0-0-9-305000;0 
0-0-9-308000;-3 
0-0-9-310000;9 
0-0-9-312000;2 
0-0-9-314000;3 
0-0-9-316000;2 
0-0-9-318000;12 
0-0-9-320000;-9 
0-0-9-322000;4 
0-0-9-324000;9 
0-0-9-326000;-6 
0-0-9-328000;1 
0-0-9-330000;18 
0-0-9-332000;9 
0-0-9-333000;2 
0-0-9-335000;-6 
0-0-9-337000;7 
0-0-9-339000;6 
0-0-9-342000;1 
0-0-9-344000;-10 
0-0-9-346000;12 
0-0-9-348000;-5 
0-0-9-350000;10 
0-0-9-352000;-2 
0-0-9-354000;-4 
0-0-9-356000;12 
0-0-9-358000;-4 
0-0-9-360000;-1 
0-0-9-362000;6 
0-0-9-364000;-8 
0-0-9-366000;-4 
0-0-9-368000;15 
0-0-9-370000;-7 
0-0-9-372000;9 
0-0-9-374000;-4 
0-0-9-376000;3 
0-0-9-378000;-12 
0-0-9-380000;-3 
0-0-9-382000;1 
0-0-9-384000;-2 
0-0-9-386000;-19 
0-0-9-388000;17 
0-0-9-390000;-5 
0-0-9-392000;-3 
0-0-9-394000;26 
0-0-9-396000;-12 
0-0-9-398000;3 
0-0-9-400000;7 
0-0-9-402000;0 
0-0-9-404000;0 
0-0-9-406000;19 
0-0-9-408000;-6 
0-0-9-411000;19 
0-0-9-413000;-11 
0-0-9-415000;-2 
0-0-9-416000;-3 
0-0-9-418000;-19 
0-0-9-420000;-2 
0-0-9-422000;-6 
0-0-9-424000;-9 
0-0-9-426000;20 
0-0-9-438000;-7 
0-0-9-440000;-2 
0-0-9-442000;0 
0-0-9-447000;-3 
0-0-9-449000;12 
0-0-9-451000;-8 
0-0-9-453000;5 
0-0-9-455000;7 
0-0-9-457000;1 
0-0-9-458000;-9 
0-0-9-460000;8 
0-0-9-462000;1 
0-0-9-464000;-12 
0-0-9-466000;2 
0-0-9-468000;10 
0-0-9-470000;-29 
0-0-9-472000;17 
0-0-9-474000;-11 
0-0-9-476000;4 
0-0-9-478000;-10 
0-0-9-481000;3 
0-0-9-483000;6 
0-0-9-485000;2 
0-0-9-487000;-6 
0-0-9-489000;8 
0-0-9-491000;13 
0-0-9-493000;-13 
0-0-9-495000;3 
0-0-9-497000;-11 
0-0-9-499000;12 
0-0-9-500000;-6 
0-0-9-502000;-6 
0-0-9-504000;11 
0-0-9-506000;-10 
0-0-9-508000;9 
0-0-9-510000;7 
0-0-9-512000;-2 
0-0-9-515000;3 
0-0-9-517000;-36 
0-0-9-519000;2 
0-0-9-521000;-6 
0-0-9-523000;-24 
0-0-9-525000;-18 
0-0-9-527000;-2 
0-0-9-529000;-17 
0-0-9-531000;2 
0-0-9-533000;-15 
0-0-9-535000;-23 
0-0-9-537000;8 
0-0-9-539000;-20 
0-0-9-541000;-21 
0-0-9-542000;-9 
0-0-9-544000;-28 
0-0-9-546000;-14 
0-0-9-549000;-16 
0-0-9-551000;-29 
0-0-9-553000;-6 
0-0-9-555000;-41 
0-0-9-557000;-15 
0-0-9-559000;-24 
0-0-9-561000;-24 
0-0-9-563000;-34 
0-0-9-565000;-18 
0-0-9-567000;-7 
0-0-9-569000;-2 
0-0-9-571000;-17 
0-0-9-573000;5 
0-0-9-575000;-2 
0-0-9-577000;-15 
0-0-9-579000;-2 
0-0-9-581000;-6 
0-0-9-583000;17 
0-0-9-585000;-6 
0-0-9-587000;9 
0-0-9-589000;-6 
0-0-9-591000;3 
0-0-9-593000;-13 
0-0-9-595000;-1 
0-0-9-597000;3 
0-0-9-599000;15 
0-0-9-601000;-15 
0-0-9-603000;11 
0-0-9-605000;-3 
0-0-9-607000;18 
0-0-9-609000;-6 
0-0-9-611000;16 
0-0-9-613000;2 
0-0-9-615000;2 
0-0-9-618000;5 
0-0-9-620000;2 
0-0-9-622000;0 
0-0-9-624000;-11 
0-0-9-625000;9 
0-0-9-627000;-4 
0-0-9-629000;9 
0-0-9-631000;14 
0-0-9-633000;13 
0-0-9-635000;-5 
0-0-9-637000;17 
0-0-9-639000;1 
0-0-9-649000;17 
0-0-9-652000;9 
0-0-9-654000;16 
0-0-9-656000;-21 
0-0-9-658000;23 
0-0-9-660000;8 
0-0-9-662000;3 
0-0-9-664000;13 
0-0-9-666000;-11 
0-0-9-667000;-12 
0-0-9-669000;-33 
0-0-9-671000;-33 
0-0-9-673000;-73 
0-0-9-675000;-95 
0-0-9-677000;-115 
0-0-9-679000;-141 
0-0-9-681000;-151 
0-0-9-683000;-182 
0-0-9-685000;-170 
0-0-9-688000;-174 
0-0-9-690000;-175 
0-0-9-692000;-144 
0-0-9-694000;-142 
0-0-9-696000;-103 
0-0-9-698000;-63 
0-0-9-700000;-25 
0-0-9-702000;29 
0-0-9-704000;44 
0-0-9-706000;38 
0-0-9-708000;69 
0-0-9-709000;48 
0-0-9-711000;62 
0-0-9-713000;52 
0-0-9-715000;35 
0-0-9-717000;41 
0-0-9-719000;20 
0-0-9-722000;12 
0-0-9-724000;33 
0-0-9-726000;22 
0-0-9-728000;37 
0-0-9-730000;23 
0-0-9-732000;33 
0-0-9-734000;32 
0-0-9-736000;15 
0-0-9-738000;39 
0-0-9-740000;-4 
0-0-9-742000;37 
0-0-9-744000;16 
0-0-9-746000;30 
0-0-9-748000;33 
0-0-9-749000;25 
0-0-9-751000;20 
0-0-9-753000;18 
0-0-9-756000;15 
0-0-9-758000;22 
0-0-9-760000;19 
0-0-9-762000;16 
0-0-9-764000;24 
0-0-9-766000;3 
0-0-9-768000;18 
0-0-9-770000;32 
0-0-9-772000;19 
0-0-9-774000;24 
0-0-9-776000;5 
0-0-9-778000;22 
0-0-9-780000;3 
0-0-9-782000;20 
0-0-9-784000;1 
0-0-9-786000;0 
0-0-9-788000;13 
0-0-9-791000;24 
0-0-9-792000;-8 
0-0-9-794000;25 
0-0-9-796000;-10 
0-0-9-798000;16 
0-0-9-800000;5 
0-0-9-802000;5 
0-0-9-804000;16 
0-0-9-806000;6 
0-0-9-808000;6 
0-0-9-810000;-3 
0-0-9-812000;13 
0-0-9-814000;-13 
0-0-9-816000;-10 
0-0-9-818000;15 
0-0-9-820000;-14 
0-0-9-822000;4 
0-0-9-825000;-27 
0-0-9-827000;21 
0-0-9-829000;-7 
0-0-9-831000;10 
0-0-9-833000;-9 
0-0-9-834000;6 
0-0-9-836000;-20 
0-0-9-838000;-12 
0-0-9-840000;-5 
0-0-9-842000;-22 
0-0-9-844000;-14 
0-0-9-846000;-5 
0-0-9-848000;-8 
0-0-9-861000;-21 
0-0-9-863000;-5 
0-0-9-865000;-14 
0-0-9-867000;-4 
0-0-9-871000;-27 
0-0-9-873000;-21 
0-0-9-874000;-5 
0-0-9-876000;-19 
0-0-9-878000;-13 
0-0-9-880000;-35 
0-0-9-882000;-25 
0-0-9-884000;-30 
0-0-9-886000;-4 
0-0-9-888000;-28 
0-0-9-890000;0 
0-0-9-892000;-27 
0-0-9-895000;-9 
0-0-9-897000;-17 
0-0-9-899000;-14 
0-0-9-901000;-22 
0-0-9-903000;-7 
0-0-9-905000;-22 
0-0-9-907000;-14 
0-0-9-909000;-2 
0-0-9-911000;-11 
0-0-9-913000;-6 
0-0-9-915000;-22 
0-0-9-916000;-27 
0-0-9-918000;-10 
0-0-9-920000;-17 
0-0-9-922000;-11 
0-0-9-924000;-17 
0-0-9-926000;0 
0-0-9-929000;-4 
0-0-9-931000;3 
0-0-9-933000;3 
0-0-9-935000;-16 
0-0-9-937000;15 
0-0-9-939000;-14 
0-0-9-941000;-3 
0-0-9-943000;6 
0-0-9-945000;-12 
0-0-9-947000;1 
0-0-9-949000;26 
0-0-9-951000;2 
0-0-9-953000;2 
0-0-9-955000;-1 
0-0-9-957000;2 
0-0-9-958000;10 
0-0-9-960000;-3 
0-0-9-963000;14 
0-0-9-965000;-3 
0-0-9-967000;-6 
0-0-9-969000;6 
0-0-9-971000;16 
0-0-9-973000;-7 
0-0-9-975000;22 
0-0-9-977000;2 
0-0-9-979000;7 
0-0-9-981000;8 
0-0-9-983000;-21 
0-0-9-985000;7 
0-0-9-987000;-6 
0-0-9-989000;4 
0-0-9-991000;6 
0-0-9-993000;-14 
0-0-9-995000;10 
0-0-9-998000;6 
0-0-9-999000;0 
0-0-10-001000;-6 
0-0-10-003000;2 
0-0-10-005000;3 
0-0-10-007000;-1 
0-0-10-009000;15 
0-0-10-011000;-8 
0-0-10-013000;23 
0-0-10-015000;-13 
0-0-10-017000;4 
0-0-10-019000;0 
0-0-10-021000;10 
0-0-10-023000;-17 
0-0-10-025000;6 
0-0-10-027000;-7 
0-0-10-029000;14 
0-0-10-032000;10 
0-0-10-034000;-1 
0-0-10-036000;10 
0-0-10-038000;-4 
0-0-10-040000;-10 
0-0-10-041000;-2 
0-0-10-043000;2 
0-0-10-045000;-3 
0-0-10-047000;-15 
0-0-10-049000;28 
0-0-10-051000;-4 
0-0-10-053000;3 
0-0-10-055000;-7 
0-0-10-057000;0 
0-0-10-059000;-2 
0-0-10-061000;-6 
0-0-10-074000;14 
0-0-10-076000;-10 
0-0-10-078000;-6 
0-0-10-080000;-17 
0-0-10-082000;6 
0-0-10-083000;-12 
0-0-10-085000;-13 
0-0-10-087000;-3 
0-0-10-089000;14 
0-0-10-091000;-6 
0-0-10-093000;-2 
0-0-10-095000;-11 
0-0-10-097000;4 
0-0-10-099000;-13 
0-0-10-102000;9 
0-0-10-104000;-27 
0-0-10-106000;21 
0-0-10-108000;-9 
0-0-10-110000;12 
0-0-10-112000;-4 
0-0-10-114000;3 
0-0-10-116000;-1 
0-0-10-118000;1 
0-0-10-120000;6 
0-0-10-122000;-8 
0-0-10-124000;-10 
0-0-10-125000;-12 
0-0-10-127000;5 
0-0-10-129000;2 
0-0-10-131000;-8 
0-0-10-133000;6 
0-0-10-136000;1 
0-0-10-138000;7 
0-0-10-140000;-15 
0-0-10-142000;11 
0-0-10-144000;-2 
0-0-10-146000;5 
0-0-10-148000;-9 
0-0-10-150000;-3 
0-0-10-152000;10 
0-0-10-154000;-6 
0-0-10-156000;13 
0-0-10-158000;-18 
0-0-10-160000;-9 
0-0-10-162000;-15 
0-0-10-164000;-24 
0-0-10-166000;-5 
0-0-10-167000;10 
0-0-10-170000;-17 
0-0-10-172000;-6 
0-0-10-174000;6 
0-0-10-176000;-10 
0-0-10-178000;-17 
0-0-10-180000;12 
0-0-10-182000;-16 
0-0-10-184000;4 
0-0-10-186000;-22 
0-0-10-188000;5 
0-0-10-190000;-16 
0-0-10-192000;-3 
0-0-10-194000;4 
0-0-10-196000;-14 
0-0-10-198000;-15 
0-0-10-200000;-6 
0-0-10-202000;-27 
0-0-10-205000;-4 
0-0-10-207000;-21 
0-0-10-208000;-13 
0-0-10-210000;1 
0-0-10-212000;-22 
0-0-10-214000;-4 
0-0-10-216000;-21 
0-0-10-218000;-39 
0-0-10-220000;-12 
0-0-10-222000;-17 
0-0-10-224000;-43 
0-0-10-226000;-4 
0-0-10-228000;-22 
0-0-10-230000;-27 
0-0-10-232000;-8 
0-0-10-234000;-30 
0-0-10-236000;0 
0-0-10-239000;-29 
0-0-10-241000;-17 
0-0-10-243000;-31 
0-0-10-245000;-36 
0-0-10-247000;-9 
0-0-10-249000;-15 
0-0-10-250000;-2 
0-0-10-252000;-18 
0-0-10-254000;-6 
0-0-10-256000;1 
0-0-10-258000;-13 
0-0-10-260000;7 
0-0-10-262000;-19 
0-0-10-264000;12 
0-0-10-266000;4 
0-0-10-268000;11 
0-0-10-270000;12 
0-0-10-272000;10 
0-0-10-283000;-15 
0-0-10-285000;20 
0-0-10-287000;5 
0-0-10-289000;3 
0-0-10-291000;15 
0-0-10-294000;7 
0-0-10-296000;1 
0-0-10-298000;15 
0-0-10-300000;-7 
0-0-10-302000;17 
0-0-10-304000;5 
0-0-10-306000;-4 
0-0-10-309000;1 
0-0-10-311000;9 
0-0-10-313000;10 
0-0-10-315000;-4 
0-0-10-317000;8 
0-0-10-319000;-7 
0-0-10-321000;12 
0-0-10-323000;-12 
0-0-10-325000;4 
0-0-10-327000;-4 
0-0-10-329000;0 
0-0-10-331000;1 
0-0-10-333000;19 
0-0-10-334000;4 
0-0-10-336000;21 
0-0-10-338000;3 
0-0-10-340000;25 
0-0-10-343000;-2 
0-0-10-345000;-5 
0-0-10-347000;-27 
0-0-10-349000;-28 
0-0-10-351000;-37 
0-0-10-353000;-71 
0-0-10-355000;-99 
0-0-10-357000;-122 
0-0-10-359000;-134 
0-0-10-361000;-181 
0-0-10-363000;-182 
0-0-10-365000;-183 
0-0-10-367000;-185 
0-0-10-369000;-164 
0-0-10-371000;-166 
0-0-10-373000;-116 
0-0-10-374000;-99 
0-0-10-377000;-59 
0-0-10-379000;-7 
0-0-10-381000;10 
0-0-10-383000;43 
0-0-10-385000;48 
0-0-10-387000;68 
0-0-10-389000;46 
0-0-10-391000;61 
0-0-10-393000;21 
0-0-10-395000;51 
0-0-10-397000;20 
0-0-10-399000;34 
0-0-10-401000;20 
0-0-10-403000;22 
0-0-10-405000;33 
0-0-10-407000;21 
0-0-10-409000;36 
0-0-10-412000;17 
0-0-10-414000;40 
0-0-10-416000;23 
0-0-10-417000;31 
0-0-10-419000;30 
0-0-10-421000;15 
0-0-10-423000;31 
0-0-10-425000;15 
0-0-10-427000;6 
0-0-10-429000;35 
0-0-10-431000;0 
0-0-10-433000;38 
0-0-10-435000;3 
0-0-10-437000;31 
0-0-10-439000;-12 
0-0-10-441000;36 
0-0-10-443000;6 
0-0-10-446000;27 
0-0-10-448000;8 
0-0-10-450000;20 
0-0-10-452000;24 
0-0-10-454000;14 
0-0-10-456000;9 
0-0-10-458000;15 
0-0-10-459000;-6 
0-0-10-461000;0 
0-0-10-463000;18 
0-0-10-465000;-4 
0-0-10-467000;21 
0-0-10-469000;2 
0-0-10-471000;28 
0-0-10-473000;6 
0-0-10-475000;17 
0-0-10-477000;14 
0-0-10-479000;18 
0-0-10-482000;-11 
0-0-10-484000;8 
0-0-10-496000;4 
0-0-10-498000;-10 
0-0-10-499000;-18 
0-0-10-501000;4 
0-0-10-503000;-9 
0-0-10-505000;16 
0-0-10-507000;-15 
0-0-10-509000;4 
0-0-10-511000;-9 
0-0-10-513000;4 
0-0-10-516000;-33 
0-0-10-518000;15 
0-0-10-520000;-16 
0-0-10-522000;5 
0-0-10-524000;-35 
0-0-10-526000;7 
0-0-10-528000;-12 
0-0-10-530000;-4 
0-0-10-532000;-2 
0-0-10-534000;-15 
0-0-10-536000;-20 
0-0-10-538000;-12 
0-0-10-540000;-12 
0-0-10-541000;-27 
0-0-10-543000;-21 
0-0-10-545000;-27 
0-0-10-547000;-13 
0-0-10-550000;-16 
0-0-10-552000;-14 
0-0-10-554000;-14 
0-0-10-556000;-26 
0-0-10-558000;-24 
0-0-10-560000;-15 
0-0-10-562000;-44 
0-0-10-564000;-9 
0-0-10-566000;-33 
0-0-10-568000;-11 
0-0-10-570000;-41 
0-0-10-572000;2 
0-0-10-574000;-29 
0-0-10-576000;-5 
0-0-10-578000;-35 
0-0-10-580000;-19 
0-0-10-582000;-44 
0-0-10-584000;-12 
0-0-10-586000;-30 
0-0-10-588000;-18 
0-0-10-590000;-6 
0-0-10-592000;-21 
0-0-10-594000;-8 
0-0-10-596000;-17 
0-0-10-598000;-2 
0-0-10-600000;-24 
0-0-10-602000;-18 
0-0-10-604000;-10 
0-0-10-606000;-14 
0-0-10-608000;-10 
0-0-10-610000;-6 
0-0-10-612000;4 
0-0-10-614000;-11 
0-0-10-616000;-10 
0-0-10-619000;3 
0-0-10-621000;11 
0-0-10-623000;-5 
0-0-10-624000;-9 
0-0-10-626000;10 
0-0-10-628000;-11 
0-0-10-630000;19 
0-0-10-632000;2 
0-0-10-634000;3 
0-0-10-636000;-2 
0-0-10-638000;0 
0-0-10-640000;19 
0-0-10-642000;-5 
0-0-10-644000;13 
0-0-10-646000;-13 
0-0-10-648000;2 
0-0-10-650000;15 
0-0-10-653000;-9 
0-0-10-655000;-1 
0-0-10-657000;3 
0-0-10-659000;3 
0-0-10-661000;-3 
0-0-10-663000;-22 
0-0-10-665000;-2 
0-0-10-666000;0 
0-0-10-668000;2 
0-0-10-670000;15 
0-0-10-672000;4 
0-0-10-674000;11 
0-0-10-676000;14 
0-0-10-678000;-10 
0-0-10-680000;-1 
0-0-10-682000;-8 
0-0-10-684000;-8 
0-0-10-686000;7 
0-0-10-689000;-8 
0-0-10-691000;12 
0-0-10-693000;-21 
0-0-10-695000;4 
0-0-10-707000;0 
0-0-10-708000;7 
0-0-10-710000;10 
0-0-10-712000;18 
0-0-10-714000;-10 
0-0-10-716000;10 
0-0-10-720000;15 
0-0-10-723000;-13 
0-0-10-725000;9 
0-0-10-727000;-14 
0-0-10-729000;16 
0-0-10-731000;-7 
0-0-10-733000;-12 
0-0-10-735000;-10 
0-0-10-737000;10 
0-0-10-739000;-30 
0-0-10-741000;8 
0-0-10-743000;-14 
0-0-10-745000;6 
0-0-10-747000;-13 
0-0-10-749000;8 
0-0-10-750000;8 
0-0-10-752000;-2 
0-0-10-754000;-9 
0-0-10-757000;2 
0-0-10-759000;6 
0-0-10-761000;-4 
0-0-10-763000;0 
0-0-10-765000;-8 
0-0-10-767000;1 
0-0-10-769000;8 
0-0-10-771000;-5 
0-0-10-773000;10 
0-0-10-775000;-11 
0-0-10-777000;0 
0-0-10-779000;0 
0-0-10-781000;6 
0-0-10-783000;-17 
0-0-10-785000;-7 
0-0-10-787000;-19 
0-0-10-789000;4 
0-0-10-791000;-6 
0-0-10-793000;-6 
0-0-10-795000;-6 
0-0-10-797000;4 
0-0-10-799000;-16 
0-0-10-801000;8 
0-0-10-803000;-12 
0-0-10-805000;-6 
0-0-10-807000;6 
0-0-10-809000;-8 
0-0-10-811000;6 
0-0-10-813000;-13 
0-0-10-815000;8 
0-0-10-817000;-5 
0-0-10-819000;0 
0-0-10-821000;-3 
0-0-10-823000;-32 
0-0-10-826000;9 
0-0-10-828000;-16 
0-0-10-830000;5 
0-0-10-832000;-14 
0-0-10-833000;-8 
0-0-10-835000;8 
0-0-10-837000;-8 
0-0-10-839000;-7 
0-0-10-841000;2 
0-0-10-843000;-20 
0-0-10-845000;7 
0-0-10-847000;1 
0-0-10-849000;-11 
0-0-10-851000;2 
0-0-10-853000;-15 
0-0-10-855000;7 
0-0-10-857000;-11 
0-0-10-859000;15 
0-0-10-862000;-11 
0-0-10-864000;6 
0-0-10-866000;-18 
0-0-10-868000;8 
0-0-10-870000;-29 
0-0-10-872000;10 
0-0-10-874000;-14 
0-0-10-875000;-3 
0-0-10-877000;-20 
0-0-10-879000;-10 
0-0-10-881000;-10 
0-0-10-883000;-20 
0-0-10-885000;-11 
0-0-10-887000;-10 
0-0-10-889000;11 
0-0-10-891000;-21 
0-0-10-893000;-5 
0-0-10-896000;-17 
0-0-10-898000;-13 
0-0-10-900000;-7 
0-0-10-902000;-28 
0-0-10-904000;-16 
0-0-10-906000;-30 
0-0-10-908000;-9 
0-0-10-919000;-25 
0-0-10-921000;-12 
0-0-10-923000;-42 
0-0-10-925000;0 
0-0-10-927000;-23 
0-0-10-930000;-10 
0-0-10-932000;2 
0-0-10-934000;-6 
0-0-10-936000;-4 
0-0-10-938000;-3 
0-0-10-940000;9 
0-0-10-942000;-4 
0-0-10-944000;18 
0-0-10-946000;-7 
0-0-10-948000;13 
0-0-10-950000;-3 
0-0-10-952000;12 
0-0-10-954000;-11 
0-0-10-956000;29 
0-0-10-958000;-2 
0-0-10-959000;17 
0-0-10-961000;-18 
0-0-10-964000;13 
0-0-10-966000;11 
0-0-10-968000;-4 
0-0-10-970000;21 
0-0-10-972000;-9 
0-0-10-974000;1 
0-0-10-976000;0 
0-0-10-978000;6 
0-0-10-980000;3 
0-0-10-982000;15 
0-0-10-984000;-2 
0-0-10-986000;0 
0-0-10-988000;21 
0-0-10-990000;6 
0-0-10-992000;13 
0-0-10-994000;-7 
0-0-10-996000;-2 
0-0-10-999000;6 
0-0-11-000000;-20 
0-0-11-002000;22 
0-0-11-004000;-4 
0-0-11-006000;2 
0-0-11-008000;4 
0-0-11-010000;12 
0-0-11-012000;17 
0-0-11-014000;9 
0-0-11-016000;10 
0-0-11-018000;6 
0-0-11-020000;-9 
0-0-11-022000;8 
0-0-11-024000;-19 
0-0-11-026000;-15 
0-0-11-028000;-55 
0-0-11-030000;-57 
0-0-11-033000;-74 
0-0-11-035000;-116 
0-0-11-037000;-113 
0-0-11-039000;-169 
0-0-11-041000;-162 
0-0-11-042000;-206 
0-0-11-044000;-185 
0-0-11-046000;-192 
0-0-11-048000;-160 
0-0-11-050000;-161 
0-0-11-052000;-116 
0-0-11-054000;-104 
0-0-11-056000;-27 
0-0-11-058000;-4 
0-0-11-060000;33 
0-0-11-062000;30 
0-0-11-064000;54 
0-0-11-066000;50 
0-0-11-069000;48 
0-0-11-071000;53 
0-0-11-073000;28 
0-0-11-075000;25 
0-0-11-077000;18 
0-0-11-079000;34 
0-0-11-081000;21 
0-0-11-083000;27 
0-0-11-084000;3 
0-0-11-086000;47 
0-0-11-088000;24 
0-0-11-090000;27 
0-0-11-092000;32 
0-0-11-094000;27 
0-0-11-096000;37 
0-0-11-098000;36 
0-0-11-100000;20 
0-0-11-103000;34 
0-0-11-105000;34 
0-0-11-107000;15 
0-0-11-109000;34 
0-0-11-111000;17 
0-0-11-113000;38 
0-0-11-115000;18 
0-0-11-117000;12 
0-0-11-119000;32 
0-0-11-128000;32 
0-0-11-130000;-9 
0-0-11-132000;25 
0-0-11-134000;1 
0-0-11-137000;21 
0-0-11-139000;-14 
0-0-11-141000;24 
0-0-11-145000;-2 
0-0-11-147000;6 
0-0-11-149000;-8 
0-0-11-151000;16 
0-0-11-153000;4 
0-0-11-155000;16 
0-0-11-157000;2 
0-0-11-159000;-1 
0-0-11-161000;12 
0-0-11-163000;3 
0-0-11-165000;-18 
0-0-11-166000;26 
0-0-11-168000;-4 
0-0-11-171000;2 
0-0-11-173000;8 
0-0-11-175000;-10 
0-0-11-177000;-15 
0-0-11-179000;-6 
0-0-11-181000;7 
0-0-11-183000;-8 
0-0-11-185000;-8 
0-0-11-187000;-1 
0-0-11-189000;6 
0-0-11-191000;12 
0-0-11-193000;-9 
0-0-11-195000;0 
0-0-11-197000;-9 
0-0-11-199000;-6 
0-0-11-201000;-2 
0-0-11-203000;-19 
0-0-11-206000;-13 
0-0-11-208000;-11 
0-0-11-209000;-17 
0-0-11-211000;3 
0-0-11-213000;-21 
0-0-11-215000;-21 
0-0-11-217000;-20 
0-0-11-219000;-24 
0-0-11-221000;-12 
0-0-11-223000;-33 
0-0-11-225000;5 
0-0-11-227000;-28 
0-0-11-229000;-6 
0-0-11-231000;-38 
0-0-11-233000;-6 
0-0-11-235000;-28 
0-0-11-237000;-10 
0-0-11-240000;-21 
0-0-11-242000;-29 
0-0-11-244000;-4 
0-0-11-246000;-36 
0-0-11-248000;-15 
0-0-11-249000;-23 
0-0-11-251000;-28 
0-0-11-253000;-4 
0-0-11-255000;-20 
0-0-11-257000;-16 
0-0-11-259000;-16 
0-0-11-261000;-33 
0-0-11-263000;-15 
0-0-11-265000;-29 
0-0-11-267000;-8 
0-0-11-269000;-44 
0-0-11-271000;-6 
0-0-11-273000;-10 
0-0-11-276000;-20 
0-0-11-278000;-3 
0-0-11-280000;-22 
0-0-11-282000;-9 
0-0-11-284000;-17 
0-0-11-286000;-8 
0-0-11-288000;-5 
0-0-11-290000;-3 
0-0-11-291000;1 
0-0-11-293000;-6 
0-0-11-295000;12 
0-0-11-297000;-17 
0-0-11-299000;9 
0-0-11-301000;-30 
0-0-11-303000;7 
0-0-11-305000;8 
0-0-11-307000;-17 
0-0-11-310000;19 
0-0-11-312000;1 
0-0-11-314000;18 
0-0-11-316000;-16 
0-0-11-318000;23 
0-0-11-320000;9 
0-0-11-322000;-1 
0-0-11-324000;8 
0-0-11-326000;-3 
0-0-11-328000;-7 
0-0-11-330000;14 
0-0-11-341000;15 
0-0-11-344000;-10 
0-0-11-346000;-13 
0-0-11-348000;14 
0-0-11-350000;1 
0-0-11-352000;15 
0-0-11-354000;-21 
0-0-11-356000;13 
0-0-11-358000;-10 
0-0-11-360000;13 
0-0-11-362000;-30 
0-0-11-364000;10 
0-0-11-366000;-10 
0-0-11-368000;-9 
0-0-11-370000;15 
0-0-11-372000;-14 
0-0-11-374000;0 
0-0-11-375000;2 
0-0-11-378000;-7 
0-0-11-380000;8 
0-0-11-382000;-26 
0-0-11-384000;8 
0-0-11-386000;-2 
0-0-11-388000;0 
0-0-11-390000;9 
0-0-11-392000;-24 
0-0-11-394000;10 
0-0-11-396000;-2 
0-0-11-398000;-2 
0-0-11-400000;-12 
0-0-11-402000;-31 
0-0-11-404000;-4 
0-0-11-406000;1 
0-0-11-408000;1 
0-0-11-410000;4 
0-0-11-413000;3 
0-0-11-415000;0 
0-0-11-416000;4 
0-0-11-418000;-8 
0-0-11-420000;20 
0-0-11-422000;-14 
0-0-11-424000;-4 
0-0-11-426000;0 
0-0-11-428000;-18 
0-0-11-430000;15 
0-0-11-432000;1 
0-0-11-434000;-3 
0-0-11-436000;8 
0-0-11-438000;-20 
0-0-11-440000;-5 
0-0-11-442000;5 
0-0-11-444000;7 
0-0-11-447000;-24 
0-0-11-449000;8 
0-0-11-451000;6 
0-0-11-453000;-3 
0-0-11-455000;11 
0-0-11-457000;10 
0-0-11-458000;8 
0-0-11-460000;-1 
0-0-11-462000;-7 
0-0-11-464000;9 
0-0-11-466000;-18 
0-0-11-468000;2 
0-0-11-470000;8 
0-0-11-472000;-2 
0-0-11-474000;-6 
0-0-11-476000;19 
0-0-11-478000;11 
0-0-11-480000;-3 
0-0-11-483000;6 
0-0-11-485000;-37 
0-0-11-487000;6 
0-0-11-489000;8 
0-0-11-491000;2 
0-0-11-493000;-1 
0-0-11-495000;3 
0-0-11-497000;-13 
0-0-11-499000;-1 
0-0-11-500000;7 
0-0-11-502000;-12 
0-0-11-504000;15 
0-0-11-506000;-21 
0-0-11-508000;-6 
0-0-11-510000;24 
0-0-11-512000;1 
0-0-11-514000;8 
0-0-11-517000;1 
0-0-11-519000;-9 
0-0-11-521000;1 
0-0-11-523000;-22 
0-0-11-525000;15 
0-0-11-527000;-16 
0-0-11-529000;8 
0-0-11-531000;-10 
0-0-11-533000;15 
0-0-11-535000;-3 
0-0-11-537000;-8 
0-0-11-539000;11 
0-0-11-541000;-19 
0-0-11-553000;-6 
0-0-11-555000;0 
0-0-11-557000;-27 
0-0-11-559000;-4 
0-0-11-561000;2 
0-0-11-563000;-26 
0-0-11-565000;-17 
0-0-11-567000;-8 
0-0-11-571000;12 
0-0-11-573000;-22 
0-0-11-575000;-3 
0-0-11-577000;-18 
0-0-11-579000;-15 
0-0-11-581000;-17 
0-0-11-583000;-21 
0-0-11-585000;-13 
0-0-11-587000;-13 
0-0-11-589000;-31 
0-0-11-591000;-11 
0-0-11-593000;-15 
0-0-11-595000;-22 
0-0-11-597000;-23 
0-0-11-599000;-23 
0-0-11-601000;-8 
0-0-11-603000;-30 
0-0-11-605000;-2 
0-0-11-607000;-8 
0-0-11-609000;-3 
0-0-11-611000;9 
0-0-11-613000;4 
0-0-11-615000;36 
0-0-11-617000;3 
0-0-11-620000;12 
0-0-11-622000;2 
0-0-11-624000;12 
0-0-11-625000;3 
0-0-11-627000;9 
0-0-11-629000;15 
0-0-11-631000;2 
0-0-11-633000;11 
0-0-11-635000;9 
0-0-11-637000;15 
0-0-11-639000;-3 
0-0-11-641000;16 
0-0-11-643000;6 
0-0-11-645000;2 
0-0-11-647000;17 
0-0-11-649000;-3 
0-0-11-651000;15 
0-0-11-653000;-15 
0-0-11-656000;24 
0-0-11-658000;-6 
0-0-11-660000;17 
0-0-11-662000;-9 
0-0-11-664000;24 
0-0-11-666000;-8 
0-0-11-667000;14 
0-0-11-669000;-4 
0-0-11-671000;1 
0-0-11-673000;-2 
0-0-11-675000;6 
0-0-11-677000;-2 
0-0-11-679000;1 
0-0-11-681000;-14 
0-0-11-683000;12 
0-0-11-685000;-2 
0-0-11-687000;19 
0-0-11-690000;19 
0-0-11-692000;19 
0-0-11-694000;-3 
0-0-11-696000;4 
0-0-11-698000;-13 
0-0-11-700000;-42 
0-0-11-702000;-33 
0-0-11-704000;-64 
0-0-11-706000;-71 
0-0-11-708000;-124 
0-0-11-709000;-115 
0-0-11-711000;-151 
0-0-11-713000;-183 
0-0-11-715000;-180 
0-0-11-717000;-186 
0-0-11-719000;-184 
0-0-11-721000;-177 
0-0-11-724000;-147 
0-0-11-726000;-136 
0-0-11-728000;-96 
0-0-11-730000;-35 
0-0-11-732000;1 
0-0-11-734000;33 
0-0-11-736000;59 
0-0-11-738000;43 
0-0-11-740000;45 
0-0-11-742000;58 
0-0-11-744000;40 
0-0-11-746000;7 
0-0-11-748000;44 
0-0-11-749000;12 
0-0-11-751000;38 
0-0-11-753000;6 
0-0-11-764000;30 
0-0-11-766000;15 
0-0-11-768000;32 
0-0-11-770000;27 
0-0-11-772000;35 
0-0-11-774000;27 
0-0-11-776000;33 
0-0-11-778000;18 
0-0-11-780000;36 
0-0-11-782000;22 
0-0-11-784000;-1 
0-0-11-786000;24 
0-0-11-788000;4 
0-0-11-790000;34 
0-0-11-792000;-5 
0-0-11-794000;30 
0-0-11-796000;27 
0-0-11-798000;9 
0-0-11-800000;6 
0-0-11-802000;11 
0-0-11-804000;6 
0-0-11-806000;22 
0-0-11-808000;6 
0-0-11-810000;8 
0-0-11-812000;10 
0-0-11-814000;9 
0-0-11-816000;18 
0-0-11-818000;7 
0-0-11-820000;21 
0-0-11-822000;12 
0-0-11-824000;0 
0-0-11-827000;17 
0-0-11-829000;-5 
0-0-11-831000;8 
0-0-11-833000;9 
0-0-11-834000;16 
0-0-11-836000;-8 
0-0-11-838000;-7 
0-0-11-840000;0 
0-0-11-842000;8 
0-0-11-844000;0 
0-0-11-846000;-4 
0-0-11-848000;16 
0-0-11-850000;2 
0-0-11-852000;12 
0-0-11-854000;-2 
0-0-11-856000;-9 
0-0-11-858000;13 
0-0-11-860000;-12 
0-0-11-863000;5 
0-0-11-865000;-10 
0-0-11-867000;-13 
0-0-11-869000;3 
0-0-11-871000;-24 
0-0-11-873000;-6 
0-0-11-874000;3 
0-0-11-876000;-23 
0-0-11-878000;-7 
0-0-11-880000;1 
0-0-11-882000;-9 
0-0-11-884000;-40 
0-0-11-886000;4 
0-0-11-888000;-15 
0-0-11-890000;-25 
0-0-11-892000;-4 
0-0-11-894000;-1 
0-0-11-897000;-34 
0-0-11-899000;-28 
0-0-11-901000;-20 
0-0-11-903000;-11 
0-0-11-905000;-34 
0-0-11-907000;-34 
0-0-11-909000;-17 
0-0-11-911000;-5 
0-0-11-913000;-25 
0-0-11-915000;-47 
0-0-11-916000;-12 
0-0-11-918000;-10 
0-0-11-920000;-15 
0-0-11-922000;-49 
0-0-11-924000;-21 
0-0-11-926000;-10 
0-0-11-928000;-18 
0-0-11-931000;-39 
0-0-11-933000;2 
0-0-11-935000;-10 
0-0-11-937000;-26 
0-0-11-939000;-13 
0-0-11-941000;-15 
0-0-11-943000;-17 
0-0-11-945000;-19 
0-0-11-947000;-17 
0-0-11-949000;-27 
0-0-11-951000;-1 
0-0-11-953000;2 
0-0-11-955000;0 
0-0-11-957000;-20 
0-0-11-958000;-5 
0-0-11-960000;-18 
0-0-11-962000;-4 
0-0-11-977000;3 
0-0-11-979000;15 
0-0-11-981000;19 
0-0-11-983000;-4 
0-0-11-985000;0 
0-0-11-987000;9 
0-0-11-989000;13 
0-0-11-991000;-5 
0-0-11-993000;13 
0-0-11-997000;-16 
0-0-11-999000;18 
0-0-12-001000;6 
0-0-12-003000;-4 
0-0-12-005000;20 
0-0-12-007000;-12 
0-0-12-009000;8 
0-0-12-011000;19 
0-0-12-013000;0 
0-0-12-015000;-2 
0-0-12-017000;8 
0-0-12-019000;-6 
0-0-12-021000;13 
0-0-12-023000;-9 
0-0-12-025000;10 
0-0-12-027000;19 
0-0-12-029000;-7 
0-0-12-031000;-1 
0-0-12-034000;13 
0-0-12-036000;9 
0-0-12-038000;-4 
0-0-12-040000;13 
0-0-12-041000;-4 
0-0-12-043000;-7 
0-0-12-045000;20 
0-0-12-047000;-9 
0-0-12-049000;12 
0-0-12-051000;14 
0-0-12-053000;-8 
0-0-12-055000;18 
0-0-12-057000;8 
0-0-12-059000;-12 
0-0-12-061000;-12 
0-0-12-063000;-5 
0-0-12-065000;-17 
0-0-12-067000;-6 
0-0-12-070000;6 
0-0-12-072000;-4 
0-0-12-074000;21 
0-0-12-076000;-5 
0-0-12-078000;-7 
0-0-12-080000;2 
0-0-12-082000;-18 
0-0-12-083000;6 
0-0-12-085000;-13 
0-0-12-087000;5 
0-0-12-089000;-6 
0-0-12-091000;-12 
0-0-12-093000;23 
0-0-12-095000;-12 
0-0-12-097000;8 
0-0-12-099000;-5 
0-0-12-101000;-2 
0-0-12-104000;5 
0-0-12-106000;-9 
0-0-12-108000;9 
0-0-12-110000;2 
0-0-12-112000;0 
0-0-12-114000;14 
0-0-12-116000;6 
0-0-12-118000;-4 
0-0-12-120000;-4 
0-0-12-122000;-6 
0-0-12-124000;3 
0-0-12-125000;-7 
0-0-12-127000;2 
0-0-12-129000;8 
0-0-12-131000;2 
0-0-12-133000;-3 
0-0-12-135000;5 
0-0-12-138000;-12 
0-0-12-140000;17 
0-0-12-142000;-8 
0-0-12-144000;5 
0-0-12-146000;-11 
0-0-12-148000;9 
0-0-12-150000;-6 
0-0-12-152000;7 
0-0-12-154000;3 
0-0-12-156000;1 
0-0-12-158000;-12 
0-0-12-160000;-4 
0-0-12-162000;1 
0-0-12-164000;-9 
0-0-12-166000;9 
0-0-12-167000;-6 
0-0-12-169000;-3 
0-0-12-172000;6 
0-0-12-174000;-2 
0-0-12-176000;11 
0-0-12-178000;9 
0-0-12-190000;-4 
0-0-12-192000;0 
0-0-12-194000;-2 
0-0-12-196000;11 
0-0-12-198000;-11 
0-0-12-200000;9 
0-0-12-202000;-14 
0-0-12-204000;11 
0-0-12-207000;-19 
0-0-12-208000;5 
0-0-12-210000;-7 
0-0-12-212000;2 
0-0-12-214000;2 
0-0-12-216000;-20 
0-0-12-218000;-4 
0-0-12-220000;-20 
0-0-12-222000;-28 
0-0-12-224000;4 
0-0-12-226000;-25 
0-0-12-228000;1 
0-0-12-230000;-5 
0-0-12-232000;11 
0-0-12-234000;-18 
0-0-12-236000;2 
0-0-12-238000;-38 
0-0-12-240000;-22 
0-0-12-243000;-25 
0-0-12-245000;-19 
0-0-12-247000;-20 
0-0-12-249000;-21 
0-0-12-250000;-9 
0-0-12-252000;-14 
0-0-12-254000;-22 
0-0-12-256000;-14 
0-0-12-258000;-42 
0-0-12-260000;-23 
0-0-12-262000;-14 
0-0-12-264000;-30 
0-0-12-266000;-3 
0-0-12-268000;-23 
0-0-12-270000;-9 
0-0-12-272000;4 
0-0-12-274000;-10 
0-0-12-277000;-4 
0-0-12-279000;4 
0-0-12-281000;5 
0-0-12-283000;10 
0-0-12-285000;3 
0-0-12-287000;-2 
0-0-12-289000;0 
0-0-12-291000;8 
0-0-12-292000;23 
0-0-12-294000;6 
0-0-12-296000;8 
0-0-12-298000;-1 
0-0-12-300000;10 
0-0-12-302000;0 
0-0-12-304000;10 
0-0-12-306000;-2 
0-0-12-308000;4 
0-0-12-311000;0 
0-0-12-313000;10 
0-0-12-315000;-3 
0-0-12-317000;7 
0-0-12-319000;11 
0-0-12-321000;-2 
0-0-12-323000;-9 
0-0-12-325000;-8 
0-0-12-327000;12 
0-0-12-329000;-2 
0-0-12-331000;6 
0-0-12-333000;12 
0-0-12-334000;10 
0-0-12-336000;8 
0-0-12-338000;-6 
0-0-12-340000;9 
0-0-12-342000;-1 
0-0-12-345000;5 
0-0-12-347000;-1 
0-0-12-349000;20 
0-0-12-351000;18 
0-0-12-353000;-9 
0-0-12-355000;37 
0-0-12-357000;16 
0-0-12-359000;1 
0-0-12-361000;-16 
0-0-12-363000;6 
0-0-12-365000;-39 
0-0-12-367000;-36 
0-0-12-369000;-72 
0-0-12-371000;-88 
0-0-12-373000;-95 
0-0-12-374000;-121 
0-0-12-376000;-157 
0-0-12-379000;-170 
0-0-12-381000;-167 
0-0-12-383000;-179 
0-0-12-385000;-189 
0-0-12-387000;-165 
0-0-12-389000;-120 
0-0-12-401000;48 
0-0-12-403000;58 
0-0-12-405000;57 
0-0-12-407000;21 
0-0-12-409000;50 
0-0-12-411000;47 
0-0-12-414000;28 
0-0-12-416000;37 
0-0-12-417000;25 
0-0-12-419000;36 
0-0-12-423000;16 
0-0-12-425000;13 
0-0-12-427000;33 
0-0-12-429000;20 
0-0-12-431000;32 
0-0-12-433000;39 
0-0-12-435000;14 
0-0-12-437000;23 
0-0-12-439000;32 
0-0-12-441000;24 
0-0-12-443000;23 
0-0-12-445000;7 
0-0-12-447000;27 
0-0-12-450000;13 
0-0-12-452000;34 
0-0-12-454000;4 
0-0-12-456000;21 
0-0-12-458000;31 
0-0-12-459000;13 
0-0-12-461000;4 
0-0-12-463000;9 
0-0-12-465000;27 
0-0-12-467000;14 
0-0-12-469000;3 
0-0-12-471000;0 
0-0-12-473000;11 
0-0-12-475000;23 
0-0-12-477000;1 
0-0-12-479000;23 
0-0-12-481000;14 
0-0-12-484000;-28 
0-0-12-486000;-6 
0-0-12-488000;14 
0-0-12-490000;-6 
0-0-12-492000;0 
0-0-12-494000;15 
0-0-12-496000;-3 
0-0-12-498000;9 
0-0-12-499000;-5 
0-0-12-501000;-4 
0-0-12-503000;-2 
0-0-12-505000;5 
0-0-12-507000;-15 
0-0-12-509000;-3 
0-0-12-511000;11 
0-0-12-513000;-5 
0-0-12-515000;5 
0-0-12-518000;-8 
0-0-12-520000;-18 
0-0-12-522000;6 
0-0-12-524000;-2 
0-0-12-526000;-9 
0-0-12-528000;6 
0-0-12-530000;-19 
0-0-12-532000;-6 
0-0-12-534000;7 
0-0-12-536000;-11 
0-0-12-538000;-19 
0-0-12-540000;-19 
0-0-12-541000;-12 
0-0-12-543000;-21 
0-0-12-545000;5 
0-0-12-547000;-21 
0-0-12-549000;-3 
0-0-12-552000;-2 
0-0-12-554000;-13 
0-0-12-556000;-24 
0-0-12-558000;-2 
0-0-12-560000;-13 
0-0-12-562000;-28 
0-0-12-564000;-12 
0-0-12-566000;-5 
0-0-12-568000;-24 
0-0-12-570000;-13 
0-0-12-572000;-11 
0-0-12-574000;-28 
0-0-12-576000;-19 
0-0-12-578000;0 
0-0-12-580000;-18 
0-0-12-582000;-27 
0-0-12-583000;-32 
0-0-12-586000;-27 
0-0-12-588000;-27 
0-0-12-590000;-8 
0-0-12-592000;-15 
0-0-12-594000;-25 
0-0-12-596000;-4 
0-0-12-598000;-19 
0-0-12-600000;-31 
0-0-12-602000;-22 
0-0-12-612000;-18 
0-0-12-614000;10 
0-0-12-616000;0 
0-0-12-618000;-20 
0-0-12-621000;-3 
0-0-12-623000;-14 
0-0-12-624000;-8 
0-0-12-626000;10 
0-0-12-628000;0 
0-0-12-630000;-22 
0-0-12-632000;13 
0-0-12-634000;-6 
0-0-12-636000;-4 
0-0-12-638000;14 
0-0-12-640000;-11 
0-0-12-642000;19 
0-0-12-644000;1 
0-0-12-646000;-5 
0-0-12-648000;14 
0-0-12-650000;-1 
0-0-12-652000;-3 
0-0-12-654000;24 
0-0-12-657000;6 
0-0-12-659000;11 
0-0-12-661000;-3 
0-0-12-663000;14 
0-0-12-665000;10 
0-0-12-666000;0 
0-0-12-668000;13 
0-0-12-670000;11 
0-0-12-672000;11 
0-0-12-674000;13 
0-0-12-676000;-2 
0-0-12-678000;12 
0-0-12-680000;11 
0-0-12-682000;2 
0-0-12-684000;13 
0-0-12-686000;-19 
0-0-12-688000;21 
0-0-12-691000;8 
0-0-12-693000;6 
0-0-12-695000;24 
0-0-12-697000;-9 
0-0-12-699000;19 
0-0-12-701000;-6 
0-0-12-703000;-11 
0-0-12-705000;13 
0-0-12-707000;-21 
0-0-12-708000;9 
0-0-12-710000;18 
0-0-12-712000;8 
0-0-12-714000;-7 
0-0-12-716000;12 
0-0-12-718000;13 
0-0-12-720000;6 
0-0-12-722000;-13 
0-0-12-725000;5 
0-0-12-727000;-13 
0-0-12-729000;-9 
0-0-12-731000;14 
0-0-12-733000;3 
0-0-12-735000;5 
0-0-12-737000;10 
0-0-12-739000;0 
0-0-12-741000;-10 
0-0-12-743000;8 
0-0-12-745000;-12 
0-0-12-747000;10 
0-0-12-749000;1 
0-0-12-750000;-7 
0-0-12-752000;0 
0-0-12-754000;1 
0-0-12-756000;4 
0-0-12-759000;12 
0-0-12-761000;-26 
0-0-12-763000;8 
0-0-12-765000;-5 
0-0-12-767000;-3 
0-0-12-769000;2 
0-0-12-771000;8 
0-0-12-773000;12 
0-0-12-775000;2 
0-0-12-777000;9 
0-0-12-779000;-12 
0-0-12-781000;18 
0-0-12-783000;-11 
0-0-12-785000;7 
0-0-12-787000;-8 
0-0-12-789000;2 
0-0-12-791000;-23 
0-0-12-793000;23 
0-0-12-795000;-7 
0-0-12-797000;20 
0-0-12-799000;2 
0-0-12-801000;21 
0-0-12-803000;-11 
0-0-12-805000;-4 
0-0-12-807000;-15 
0-0-12-809000;-7 
0-0-12-811000;-3 
0-0-12-823000;-10 
0-0-12-825000;-4 
0-0-12-828000;-5 
0-0-12-830000;-12 
0-0-12-832000;-5 
0-0-12-833000;4 
0-0-12-835000;-8 
0-0-12-837000;-14 
0-0-12-839000;9 
0-0-12-841000;-14 
0-0-12-843000;8 
0-0-12-847000;-12 
0-0-12-849000;-1 
0-0-12-851000;7 
0-0-12-853000;-11 
0-0-12-855000;-3 
0-0-12-857000;14 
0-0-12-859000;-15 
0-0-12-861000;-2 
0-0-12-864000;-1 
0-0-12-866000;-33 
0-0-12-868000;-12 
0-0-12-870000;-2 
0-0-12-872000;-21 
0-0-12-874000;5 
0-0-12-875000;-14 
0-0-12-877000;-8 
0-0-12-879000;-11 
0-0-12-881000;-24 
0-0-12-883000;-25 
0-0-12-885000;-13 
0-0-12-887000;-5 
0-0-12-889000;-10 
0-0-12-891000;-19 
0-0-12-893000;0 
0-0-12-895000;-17 
0-0-12-898000;-6 
0-0-12-900000;-36 
0-0-12-902000;-13 
0-0-12-904000;-28 
0-0-12-906000;-29 
0-0-12-908000;-9 
0-0-12-910000;-31 
0-0-12-912000;-38 
0-0-12-914000;-8 
0-0-12-916000;-18 
0-0-12-917000;-15 
0-0-12-919000;-6 
0-0-12-921000;-30 
0-0-12-923000;2 
0-0-12-925000;-16 
0-0-12-927000;-11 
0-0-12-929000;-11 
0-0-12-932000;-5 
0-0-12-934000;3 
0-0-12-936000;20 
0-0-12-938000;-10 
0-0-12-940000;11 
0-0-12-942000;17 
0-0-12-944000;-2 
0-0-12-946000;18 
0-0-12-948000;-7 
0-0-12-950000;4 
0-0-12-952000;6 
0-0-12-954000;2 
0-0-12-956000;6 
0-0-12-958000;12 
0-0-12-959000;16 
0-0-12-961000;1 
0-0-12-963000;10 
0-0-12-966000;6 
0-0-12-968000;-6 
0-0-12-970000;24 
0-0-12-972000;-4 
0-0-12-974000;17 
0-0-12-976000;-18 
0-0-12-978000;24 
0-0-12-980000;-8 
0-0-12-982000;13 
0-0-12-984000;-2 
0-0-12-986000;14 
0-0-12-988000;8 
0-0-12-990000;3 
0-0-12-992000;10 
0-0-12-994000;-6 
0-0-12-996000;21 
0-0-12-998000;0 
0-0-13-000000;16 
0-0-13-002000;-7 
0-0-13-004000;11 
0-0-13-006000;-5 
0-0-13-008000;18 
0-0-13-010000;9 
0-0-13-012000;21 
0-0-13-014000;-2 
0-0-13-016000;-17 
0-0-13-018000;-10 
0-0-13-020000;-24 
0-0-13-022000;-85 
0-0-13-024000;-62 
0-0-13-037000;-174 
0-0-13-039000;-176 
0-0-13-041000;-164 
0-0-13-042000;-155 
0-0-13-044000;-117 
0-0-13-046000;-99 
0-0-13-048000;-48 
0-0-13-050000;8 
0-0-13-052000;3 
0-0-13-054000;31 
0-0-13-056000;72 
0-0-13-058000;62 
0-0-13-060000;29 
0-0-13-062000;48 
0-0-13-064000;47 
0-0-13-066000;29 
0-0-13-068000;21 
0-0-13-071000;40 
0-0-13-073000;20 
0-0-13-075000;25 
0-0-13-077000;38 
0-0-13-079000;9 
0-0-13-081000;24 
0-0-13-083000;19 
0-0-13-084000;28 
0-0-13-086000;30 
0-0-13-088000;31 
0-0-13-090000;15 
0-0-13-092000;36 
0-0-13-094000;36 
0-0-13-096000;19 
0-0-13-098000;11 
0-0-13-100000;41 
0-0-13-102000;19 
0-0-13-105000;17 
0-0-13-107000;11 
0-0-13-109000;5 
0-0-13-111000;20 
0-0-13-113000;23 
0-0-13-115000;13 
0-0-13-117000;23 
0-0-13-119000;5 
0-0-13-121000;3 
0-0-13-123000;18 
0-0-13-124000;17 
0-0-13-126000;7 
0-0-13-128000;18 
0-0-13-130000;5 
0-0-13-132000;7 
0-0-13-134000;13 
0-0-13-136000;4 
0-0-13-139000;-2 
0-0-13-141000;20 
0-0-13-143000;17 
0-0-13-145000;-2 
0-0-13-147000;16 
0-0-13-149000;-1 
0-0-13-151000;-7 
0-0-13-153000;2 
0-0-13-155000;12 
0-0-13-157000;-4 
0-0-13-159000;-3 
0-0-13-161000;14 
0-0-13-163000;-5 
0-0-13-165000;3 
0-0-13-166000;3 
0-0-13-168000;3 
0-0-13-170000;-11 
0-0-13-173000;-17 
0-0-13-175000;2 
0-0-13-177000;2 
0-0-13-179000;-9 
0-0-13-181000;-15 
0-0-13-183000;15 
0-0-13-185000;1 
0-0-13-187000;-20 
0-0-13-189000;-1 
0-0-13-191000;-16 
0-0-13-193000;-6 
0-0-13-195000;4 
0-0-13-197000;-14 
0-0-13-199000;-20 
0-0-13-201000;-8 
0-0-13-203000;-22 
0-0-13-205000;-16 
0-0-13-208000;-4 
0-0-13-209000;-15 
0-0-13-211000;-18 
0-0-13-213000;-23 
0-0-13-215000;-10 
0-0-13-217000;-18 
0-0-13-219000;-14 
0-0-13-221000;-13 
0-0-13-223000;-24 
0-0-13-225000;-28 
0-0-13-227000;-16 
0-0-13-229000;-34 
0-0-13-231000;-18 
0-0-13-233000;-11 
0-0-13-235000;-14 
0-0-13-248000;-30 
0-0-13-249000;-25 
0-0-13-251000;-28 
0-0-13-253000;-17 
0-0-13-255000;-15 
0-0-13-257000;-9 
0-0-13-259000;-15 
0-0-13-261000;-24 
0-0-13-263000;-5 
0-0-13-265000;-43 
0-0-13-267000;8 
0-0-13-269000;-24 
0-0-13-273000;-7 
0-0-13-275000;-31 
0-0-13-278000;10 
0-0-13-280000;-17 
0-0-13-282000;1 
0-0-13-284000;-22 
0-0-13-286000;-4 
0-0-13-288000;2 
0-0-13-290000;-4 
0-0-13-291000;15 
0-0-13-293000;-12 
0-0-13-295000;-6 
0-0-13-297000;15 
0-0-13-299000;-2 
0-0-13-301000;6 
0-0-13-303000;17 
0-0-13-305000;-11 
0-0-13-307000;12 
0-0-13-309000;16 
0-0-13-312000;4 
0-0-13-314000;18 
0-0-13-316000;7 
0-0-13-318000;5 
0-0-13-320000;8 
0-0-13-322000;-6 
0-0-13-324000;9 
0-0-13-326000;5 
0-0-13-328000;10 
0-0-13-330000;-16 
0-0-13-332000;16 
0-0-13-333000;-1 
0-0-13-335000;10 
0-0-13-337000;-4 
0-0-13-339000;-2 
0-0-13-341000;-4 
0-0-13-343000;-1 
0-0-13-346000;6 
0-0-13-348000;0 
0-0-13-350000;-21 
0-0-13-352000;2 
0-0-13-354000;12 
0-0-13-356000;-7 
0-0-13-358000;7 
0-0-13-360000;-6 
0-0-13-362000;2 
0-0-13-364000;7 
0-0-13-366000;3 
0-0-13-368000;-1 
0-0-13-370000;5 
0-0-13-372000;4 
0-0-13-374000;-6 
0-0-13-375000;-9 
0-0-13-377000;-4 
0-0-13-380000;-21 
0-0-13-382000;9 
0-0-13-384000;-1 
0-0-13-386000;-9 
0-0-13-388000;17 
0-0-13-390000;-8 
0-0-13-392000;4 
0-0-13-394000;4 
0-0-13-396000;-5 
0-0-13-398000;-6 
0-0-13-400000;4 
0-0-13-402000;-19 
0-0-13-404000;14 
0-0-13-406000;-13 
0-0-13-408000;-6 
0-0-13-410000;3 
0-0-13-412000;11 
0-0-13-415000;-13 
0-0-13-416000;4 
0-0-13-418000;9 
0-0-13-420000;-11 
0-0-13-422000;-5 
0-0-13-424000;-1 
0-0-13-426000;-21 
0-0-13-428000;-4 
0-0-13-430000;9 
0-0-13-432000;-12 
0-0-13-434000;0 
0-0-13-436000;1 
0-0-13-438000;-13 
0-0-13-440000;0 
0-0-13-442000;6 
0-0-13-444000;-18 
0-0-13-446000;0 
0-0-13-448000;9 
0-0-13-458000;4 
0-0-13-460000;-23 
0-0-13-462000;7 
0-0-13-464000;18 
0-0-13-466000;-1 
0-0-13-468000;-13 
0-0-13-470000;-6 
0-0-13-472000;1 
0-0-13-474000;16 
0-0-13-476000;-1 
0-0-13-478000;-11 
0-0-13-480000;15 
0-0-13-482000;1 
0-0-13-485000;-8 
0-0-13-487000;12 
0-0-13-489000;7 
0-0-13-491000;-19 
0-0-13-493000;-6 
0-0-13-495000;6 
0-0-13-497000;16 
0-0-13-499000;-26 
0-0-13-500000;-1 
0-0-13-502000;-1 
0-0-13-504000;4 
0-0-13-506000;-29 
0-0-13-508000;1 
0-0-13-510000;6 
0-0-13-512000;-2 
0-0-13-514000;-7 
0-0-13-516000;-16 
0-0-13-519000;-9 
0-0-13-521000;1 
0-0-13-523000;-14 
0-0-13-525000;-20 
0-0-13-527000;-11 
0-0-13-529000;-13 
0-0-13-531000;1 
0-0-13-533000;-15 
0-0-13-535000;-16 
0-0-13-537000;-11 
0-0-13-539000;-4 
0-0-13-541000;-17 
0-0-13-542000;-5 
0-0-13-544000;-43 
0-0-13-546000;-24 
0-0-13-548000;-18 
0-0-13-550000;-23 
0-0-13-553000;-28 
0-0-13-555000;-4 
0-0-13-557000;6 
0-0-13-559000;-22 
0-0-13-561000;-19 
0-0-13-563000;-22 
0-0-13-565000;-4 
0-0-13-567000;-28 
0-0-13-569000;-13 
0-0-13-571000;-12 
0-0-13-573000;-14 
0-0-13-575000;-3 
0-0-13-577000;-19 
0-0-13-579000;9 
0-0-13-581000;2 
0-0-13-583000;-12 
0-0-13-584000;6 
0-0-13-587000;-7 
0-0-13-589000;10 
0-0-13-591000;-18 
0-0-13-593000;14 
0-0-13-595000;13 
0-0-13-597000;5 
0-0-13-599000;8 
0-0-13-601000;5 
0-0-13-603000;19 
0-0-13-605000;-4 
0-0-13-607000;16 
0-0-13-609000;-11 
0-0-13-611000;26 
0-0-13-613000;-1 
0-0-13-615000;18 
0-0-13-617000;3 
0-0-13-619000;12 
0-0-13-621000;-6 
0-0-13-624000;0 
0-0-13-625000;15 
0-0-13-627000;-5 
0-0-13-629000;0 
0-0-13-631000;7 
0-0-13-633000;-10 
0-0-13-635000;18 
0-0-13-637000;-14 
0-0-13-639000;0 
0-0-13-641000;12 
0-0-13-643000;-9 
0-0-13-645000;11 
0-0-13-647000;-9 
0-0-13-649000;10 
0-0-13-651000;5 
0-0-13-653000;-3 
0-0-13-655000;20 
0-0-13-658000;-14 
0-0-13-669000;-11 
0-0-13-671000;-10 
0-0-13-673000;-49 
0-0-13-675000;-65 
0-0-13-677000;-89 
0-0-13-679000;-108 
0-0-13-681000;-122 
0-0-13-683000;-164 
0-0-13-685000;-168 
0-0-13-687000;-215 
0-0-13-689000;-182 
0-0-13-692000;-201 
0-0-13-694000;-175 
0-0-13-698000;-116 
0-0-13-700000;-101 
0-0-13-702000;-32 
0-0-13-704000;2 
0-0-13-706000;40 
0-0-13-708000;36 
0-0-13-709000;56 
0-0-13-711000;53 
0-0-13-713000;49 
0-0-13-715000;48 
0-0-13-717000;40 
0-0-13-719000;27 
0-0-13-721000;16 
0-0-13-723000;23 
0-0-13-726000;32 
0-0-13-728000;17 
0-0-13-730000;33 
0-0-13-732000;22 
0-0-13-734000;36 
0-0-13-736000;25 
0-0-13-738000;41 
0-0-13-740000;26 
0-0-13-742000;40 
0-0-13-744000;31 
0-0-13-746000;12 
0-0-13-748000;25 
0-0-13-749000;15 
0-0-13-751000;39 
0-0-13-753000;38 
0-0-13-755000;28 
0-0-13-757000;31 
0-0-13-760000;13 
0-0-13-762000;39 
0-0-13-764000;14 
0-0-13-766000;12 
0-0-13-768000;2 
0-0-13-770000;20 
0-0-13-772000;27 
0-0-13-774000;1 
0-0-13-776000;29 
0-0-13-778000;19 
0-0-13-780000;7 
0-0-13-782000;20 
0-0-13-784000;9 
0-0-13-786000;19 
0-0-13-788000;10 
0-0-13-790000;16 
0-0-13-791000;1 
0-0-13-794000;7 
0-0-13-796000;23 
0-0-13-798000;-1 
0-0-13-800000;8 
0-0-13-802000;13 
0-0-13-804000;-6 
0-0-13-806000;-11 
0-0-13-808000;7 
0-0-13-810000;-3 
0-0-13-812000;8 
0-0-13-814000;8 
0-0-13-816000;0 
0-0-13-818000;13 
0-0-13-820000;-6 
0-0-13-822000;-8 
0-0-13-824000;3 
0-0-13-826000;8 
0-0-13-828000;-20 
0-0-13-831000;6 
0-0-13-833000;13 
0-0-13-834000;-2 
0-0-13-836000;12 
0-0-13-838000;6 
0-0-13-840000;-13 
0-0-13-842000;-17 
0-0-13-844000;-12 
0-0-13-846000;-5 
0-0-13-848000;-14 
0-0-13-850000;2 
0-0-13-852000;-32 
0-0-13-854000;13 
0-0-13-856000;-22 
0-0-13-858000;3 
0-0-13-860000;-9 
0-0-13-862000;-27 
0-0-13-865000;3 
0-0-13-867000;-21 
0-0-13-869000;-16 
0-0-13-871000;-15 
0-0-13-882000;-28 
0-0-13-884000;-15 
0-0-13-886000;-13 
0-0-13-888000;-25 
0-0-13-890000;-33 
0-0-13-892000;-18 
0-0-13-894000;-23 
0-0-13-896000;-8 
0-0-13-899000;-40 
0-0-13-901000;6 
0-0-13-903000;-20 
0-0-13-905000;-10 
0-0-13-907000;-26 
0-0-13-909000;-14 
0-0-13-911000;-45 
0-0-13-913000;-6 
0-0-13-915000;-26 
0-0-13-916000;-9 
0-0-13-918000;-12 
0-0-13-920000;-4 
0-0-13-922000;-24 
0-0-13-924000;-9 
0-0-13-926000;-3 
0-0-13-928000;-20 
0-0-13-930000;-4 
0-0-13-933000;3 
0-0-13-935000;-7 
0-0-13-937000;25 
0-0-13-939000;0 
0-0-13-941000;10 
0-0-13-943000;-1 
0-0-13-945000;-11 
0-0-13-947000;1 
0-0-13-949000;3 
0-0-13-951000;10 
0-0-13-953000;0 
0-0-13-955000;19 
0-0-13-957000;-19 
0-0-13-958000;8 
0-0-13-960000;6 
0-0-13-962000;4 
0-0-13-964000;5 
0-0-13-967000;-7 
0-0-13-969000;4 
0-0-13-971000;-10 
0-0-13-973000;19 
0-0-13-975000;-13 
0-0-13-977000;17 
0-0-13-979000;2 
0-0-13-981000;17 
0-0-13-983000;-13 
0-0-13-985000;18 
0-0-13-987000;-12 
0-0-13-989000;6 
0-0-13-991000;3 
0-0-13-993000;0 
0-0-13-995000;15 
0-0-13-997000;2 
0-0-13-999000;12 
0-0-14-001000;-17 
0-0-14-003000;14 
0-0-14-005000;-1 
0-0-14-007000;1 
0-0-14-009000;4 
0-0-14-011000;8 
0-0-14-013000;7 
0-0-14-015000;-2 
0-0-14-017000;9 
0-0-14-019000;-11 
0-0-14-021000;-16 
0-0-14-023000;2 
0-0-14-025000;6 
0-0-14-027000;-5 
0-0-14-029000;-5 
0-0-14-031000;3 
0-0-14-033000;8 
0-0-14-035000;4 
0-0-14-038000;-7 
0-0-14-040000;2 
0-0-14-041000;9 
0-0-14-043000;10 
0-0-14-045000;-15 
0-0-14-047000;7 
0-0-14-049000;-1 
0-0-14-051000;3 
0-0-14-053000;4 
0-0-14-055000;4 
0-0-14-057000;2 
0-0-14-059000;-10 
0-0-14-061000;2 
0-0-14-063000;7 
0-0-14-065000;-2 
0-0-14-067000;-9 
0-0-14-069000;-4 
0-0-14-072000;7 
0-0-14-074000;-7 
0-0-14-076000;-9 
0-0-14-078000;12 
0-0-14-080000;-14 
0-0-14-082000;10 
0-0-14-091000;7 
0-0-14-093000;-9 
0-0-14-095000;1 
0-0-14-097000;1 
0-0-14-099000;9 
0-0-14-101000;-6 
0-0-14-103000;1 
0-0-14-106000;-8 
0-0-14-108000;-7 
0-0-14-110000;2 
0-0-14-112000;0 
0-0-14-114000;-15 
0-0-14-116000;20 
0-0-14-118000;0 
0-0-14-122000;4 
0-0-14-124000;7 
0-0-14-125000;-11 
0-0-14-127000;4 
0-0-14-129000;-5 
0-0-14-131000;6 
0-0-14-133000;-18 
0-0-14-135000;17 
0-0-14-137000;-9 
0-0-14-140000;10 
0-0-14-142000;-24 
0-0-14-144000;8 
0-0-14-146000;-7 
0-0-14-148000;3 
0-0-14-150000;-8 
0-0-14-152000;-7 
0-0-14-154000;-13 
0-0-14-156000;10 
0-0-14-158000;2 
0-0-14-160000;-29 
0-0-14-162000;18 
0-0-14-164000;-21 
0-0-14-166000;-5 
0-0-14-167000;-22 
0-0-14-169000;-10 
0-0-14-171000;2 
0-0-14-174000;-9 
0-0-14-176000;-2 
0-0-14-178000;-18 
0-0-14-180000;8 
0-0-14-182000;-21 
0-0-14-184000;-9 
0-0-14-186000;-13 
0-0-14-188000;-21 
0-0-14-190000;-18 
0-0-14-192000;-25 
0-0-14-194000;-5 
0-0-14-196000;-15 
0-0-14-198000;-21 
0-0-14-200000;-29 
0-0-14-202000;-12 
0-0-14-204000;-23 
0-0-14-206000;-29 
0-0-14-208000;-26 
0-0-14-210000;-8 
0-0-14-212000;-33 
0-0-14-214000;-6 
0-0-14-216000;-14 
0-0-14-218000;-5 
0-0-14-220000;-1 
0-0-14-222000;-19 
0-0-14-224000;0 
0-0-14-226000;1 
0-0-14-228000;-1 
0-0-14-230000;-6 
0-0-14-232000;10 
0-0-14-234000;4 
0-0-14-236000;20 
0-0-14-238000;-2 
0-0-14-240000;23 
0-0-14-242000;10 
0-0-14-245000;-8 
0-0-14-247000;10 
0-0-14-249000;-5 
0-0-14-250000;22 
0-0-14-252000;0 
0-0-14-254000;17 
0-0-14-256000;12 
0-0-14-258000;21 
0-0-14-260000;-2 
0-0-14-262000;14 
0-0-14-264000;-6 
0-0-14-266000;1 
0-0-14-268000;15 
0-0-14-270000;-8 
0-0-14-272000;5 
0-0-14-274000;3 
0-0-14-276000;20 
0-0-14-279000;1 
0-0-14-281000;7 
0-0-14-283000;6 
0-0-14-285000;8 
0-0-14-287000;12 
0-0-14-289000;-8 
0-0-14-291000;-6 
0-0-14-292000;-16 
0-0-14-304000;11 
0-0-14-306000;19 
0-0-14-308000;1 
0-0-14-310000;13 
0-0-14-313000;7 
0-0-14-315000;7 
0-0-14-317000;4 
0-0-14-319000;-27 
0-0-14-321000;-15 
0-0-14-323000;-45 
0-0-14-325000;-74 
0-0-14-327000;-107 
0-0-14-329000;-145 
0-0-14-331000;-151 
0-0-14-333000;-168 
0-0-14-334000;-181 
0-0-14-336000;-190 
0-0-14-338000;-185 
0-0-14-340000;-172 
0-0-14-342000;-179 
0-0-14-344000;-118 
0-0-14-347000;-92 
0-0-14-349000;-36 
0-0-14-351000;-9 
0-0-14-353000;24 
0-0-14-355000;44 
0-0-14-357000;40 
0-0-14-359000;50 
0-0-14-361000;51 
0-0-14-363000;42 
0-0-14-365000;37 
0-0-14-367000;16 
0-0-14-369000;44 
0-0-14-371000;12 
0-0-14-373000;34 
0-0-14-374000;12 
0-0-14-376000;35 
0-0-14-378000;34 
0-0-14-381000;25 
0-0-14-383000;49 
0-0-14-385000;21 
0-0-14-387000;44 
0-0-14-389000;19 
0-0-14-391000;38 
0-0-14-393000;25 
0-0-14-395000;37 
0-0-14-397000;32 
0-0-14-399000;20 
0-0-14-401000;25 
0-0-14-403000;14 
0-0-14-405000;18 
0-0-14-407000;31 
0-0-14-409000;8 
0-0-14-411000;35 
0-0-14-413000;1 
0-0-14-415000;33 
0-0-14-417000;7 
0-0-14-419000;28 
0-0-14-421000;-13 
0-0-14-423000;25 
0-0-14-425000;6 
0-0-14-427000;26 
0-0-14-429000;7 
0-0-14-431000;9 
0-0-14-433000;23 
0-0-14-435000;11 
0-0-14-437000;12 
0-0-14-439000;10 
0-0-14-441000;15 
0-0-14-443000;6 
0-0-14-445000;3 
0-0-14-447000;17 
0-0-14-449000;4 
0-0-14-452000;3 
0-0-14-454000;15 
0-0-14-456000;8 
0-0-14-458000;13 
0-0-14-459000;-2 
0-0-14-461000;15 
0-0-14-463000;8 
0-0-14-465000;-10 
0-0-14-467000;-11 
0-0-14-469000;-4 
0-0-14-471000;5 
0-0-14-473000;-12 
0-0-14-475000;13 
0-0-14-477000;-7 
0-0-14-479000;-4 
0-0-14-481000;-8 
0-0-14-483000;-2 
0-0-14-486000;-13 
0-0-14-488000;-18 
0-0-14-490000;-6 
0-0-14-492000;-14 
0-0-14-494000;1 
0-0-14-496000;-18 
0-0-14-498000;18 
0-0-14-499000;-4 
0-0-14-501000;-22 
0-0-14-503000;-4 
0-0-14-515000;-25 
0-0-14-517000;-3 
0-0-14-520000;-8 
0-0-14-522000;-26 
0-0-14-524000;-16 
0-0-14-526000;-43 
0-0-14-528000;-23 
0-0-14-530000;-11 
0-0-14-532000;-27 
0-0-14-534000;-4 
0-0-14-536000;-27 
0-0-14-538000;-9 
0-0-14-540000;-28 
0-0-14-541000;-4 
0-0-14-543000;-38 
0-0-14-547000;-11 
0-0-14-549000;-20 
0-0-14-551000;2 
0-0-14-554000;-4 
0-0-14-556000;-22 
0-0-14-558000;-1 
0-0-14-560000;-20 
0-0-14-562000;-20 
0-0-14-564000;-14 
0-0-14-566000;-22 
0-0-14-568000;-13 
0-0-14-570000;-26 
0-0-14-572000;7 
0-0-14-574000;-19 
0-0-14-576000;3 
0-0-14-578000;-11 
0-0-14-580000;8 
0-0-14-582000;-10 
0-0-14-583000;8 
0-0-14-585000;-6 
0-0-14-588000;8 
0-0-14-590000;-30 
0-0-14-592000;21 
0-0-14-594000;-8 
0-0-14-596000;22 
0-0-14-598000;-18 
0-0-14-600000;21 
0-0-14-602000;6 
0-0-14-604000;10 
0-0-14-606000;1 
0-0-14-608000;0 
0-0-14-610000;-4 
0-0-14-612000;14 
0-0-14-614000;10 
0-0-14-616000;5 
0-0-14-618000;31 
0-0-14-620000;-1 
0-0-14-622000;8 
0-0-14-624000;4 
0-0-14-626000;4 
0-0-14-628000;-13 
0-0-14-630000;7 
0-0-14-632000;-2 
0-0-14-634000;16 
0-0-14-636000;-23 
0-0-14-638000;20 
0-0-14-640000;1 
0-0-14-642000;13 
0-0-14-644000;-11 
0-0-14-646000;7 
0-0-14-648000;-2 
0-0-14-650000;8 
0-0-14-652000;-7 
0-0-14-654000;8 
0-0-14-656000;-14 
0-0-14-659000;16 
0-0-14-661000;-12 
0-0-14-663000;9 
0-0-14-665000;2 
0-0-14-666000;9 
0-0-14-668000;-4 
0-0-14-670000;-3 
0-0-14-672000;2 
0-0-14-674000;-16 
0-0-14-676000;1 
0-0-14-678000;-6 
0-0-14-680000;-1 
0-0-14-682000;-28 
0-0-14-684000;11 
0-0-14-686000;-9 
0-0-14-688000;4 
0-0-14-690000;-12 
0-0-14-693000;11 
0-0-14-695000;-3 
0-0-14-697000;-2 
0-0-14-699000;6 
0-0-14-701000;-11 
0-0-14-703000;-3 
0-0-14-705000;-16 
0-0-14-707000;0 
0-0-14-708000;-9 
0-0-14-710000;-15 
0-0-14-712000;10 
0-0-14-714000;-14 
0-0-14-716000;16 
0-0-14-729000;-8 
0-0-14-731000;-5 
0-0-14-733000;8 
0-0-14-735000;-3 
0-0-14-737000;4 
0-0-14-739000;2 
0-0-14-741000;-14 
0-0-14-743000;9 
0-0-14-745000;-8 
0-0-14-747000;0 
0-0-14-749000;-24 
0-0-14-750000;7 
0-0-14-752000;-9 
0-0-14-754000;2 
0-0-14-756000;5 
0-0-14-758000;-9 
0-0-14-761000;12 
0-0-14-763000;-13 
0-0-14-765000;12 
0-0-14-767000;-28 
0-0-14-769000;11 
0-0-14-771000;-13 
0-0-14-773000;7 
0-0-14-775000;-26 
0-0-14-777000;21 
0-0-14-779000;-11 
0-0-14-781000;9 
0-0-14-783000;-4 
0-0-14-785000;8 
0-0-14-787000;7 
0-0-14-789000;-7 
0-0-14-791000;0 
0-0-14-792000;7 
0-0-14-795000;-3 
0-0-14-797000;11 
0-0-14-799000;-1 
0-0-14-801000;5 
0-0-14-803000;5 
0-0-14-805000;-8 
0-0-14-807000;-19 
0-0-14-809000;-22 
0-0-14-811000;-2 
0-0-14-813000;-29 
0-0-14-815000;-7 
0-0-14-817000;-1 
0-0-14-819000;-21 
0-0-14-821000;4 
0-0-14-823000;-14 
0-0-14-825000;-14 
0-0-14-827000;-17 
0-0-14-829000;-14 
0-0-14-832000;-10 
0-0-14-833000;-24 
0-0-14-835000;-12 
0-0-14-837000;-19 
0-0-14-839000;-16 
0-0-14-841000;-11 
0-0-14-843000;-16 
0-0-14-845000;-15 
0-0-14-847000;-19 
0-0-14-849000;-27 
0-0-14-851000;-36 
0-0-14-853000;-20 
0-0-14-855000;-12 
0-0-14-857000;-11 
0-0-14-859000;-37 
0-0-14-861000;-17 
0-0-14-863000;-14 
0-0-14-866000;-12 
0-0-14-868000;-4 
0-0-14-870000;-25 
0-0-14-872000;10 
0-0-14-874000;4 
0-0-14-875000;14 
0-0-14-877000;7 
0-0-14-879000;14 
0-0-14-881000;20 
0-0-14-883000;12 
0-0-14-885000;-5 
0-0-14-887000;15 
0-0-14-889000;22 
0-0-14-891000;6 
0-0-14-893000;4 
0-0-14-895000;18 
0-0-14-897000;-4 
0-0-14-900000;6 
0-0-14-902000;13 
0-0-14-904000;15 
0-0-14-906000;-17 
0-0-14-908000;22 
0-0-14-910000;1 
0-0-14-912000;-13 
0-0-14-914000;14 
0-0-14-916000;8 
0-0-14-917000;22 
0-0-14-919000;19 
0-0-14-921000;-3 
0-0-14-923000;1 
0-0-14-925000;18 
0-0-14-927000;-18 
0-0-14-938000;20 
0-0-14-940000;-6 
0-0-14-942000;2 
0-0-14-944000;-9 
0-0-14-946000;4 
0-0-14-948000;17 
0-0-14-950000;0 
0-0-14-952000;15 
0-0-14-954000;20 
0-0-14-956000;12 
0-0-14-958000;5 
0-0-14-959000;13 
0-0-14-961000;-17 
0-0-14-963000;-56 
0-0-14-965000;-56 
0-0-14-968000;-66 
0-0-14-972000;-113 
0-0-14-974000;-145 
0-0-14-976000;-159 
0-0-14-978000;-183 
0-0-14-980000;-172 
0-0-14-982000;-192 
0-0-14-984000;-175 
0-0-14-986000;-150 
0-0-14-988000;-140 
0-0-14-990000;-110 
0-0-14-992000;-63 
0-0-14-994000;3 
0-0-14-996000;22 
0-0-14-998000;52 
0-0-14-999000;39 
0-0-15-001000;70 
0-0-15-004000;56 
0-0-15-006000;32 
0-0-15-008000;38 
0-0-15-010000;12 
0-0-15-012000;14 
0-0-15-014000;35 
0-0-15-016000;29 
0-0-15-018000;36 
0-0-15-020000;22 
0-0-15-022000;28 
0-0-15-024000;38 
0-0-15-026000;15 
0-0-15-028000;26 
0-0-15-030000;34 
0-0-15-032000;20 
0-0-15-034000;44 
0-0-15-036000;25 
0-0-15-039000;40 
0-0-15-041000;45 
0-0-15-042000;10 
0-0-15-044000;25 
0-0-15-046000;20 
0-0-15-048000;24 
0-0-15-050000;23 
0-0-15-052000;15 
0-0-15-054000;25 
0-0-15-056000;11 
0-0-15-058000;26 
0-0-15-060000;8 
0-0-15-062000;13 
0-0-15-064000;25 
0-0-15-066000;-2 
0-0-15-068000;25 
0-0-15-070000;17 
0-0-15-073000;6 
0-0-15-075000;0 
0-0-15-077000;17 
0-0-15-079000;14 
0-0-15-081000;17 
0-0-15-083000;1 
0-0-15-084000;14 
0-0-15-086000;-15 
0-0-15-088000;7 
0-0-15-090000;1 
0-0-15-092000;4 
0-0-15-094000;11 
0-0-15-096000;11 
0-0-15-098000;11 
0-0-15-100000;5 
0-0-15-102000;6 
0-0-15-104000;15 
0-0-15-107000;-7 
0-0-15-109000;10 
0-0-15-111000;-8 
0-0-15-113000;-15 
0-0-15-115000;0 
0-0-15-117000;1 
0-0-15-119000;1 
0-0-15-121000;15 
0-0-15-123000;15 
0-0-15-124000;-20 
0-0-15-126000;1 
0-0-15-128000;3 
0-0-15-130000;-29 
0-0-15-132000;-2 
0-0-15-134000;-4 
0-0-15-136000;-11 
0-0-15-138000;1 
0-0-15-151000;-15 
0-0-15-153000;-11 
0-0-15-155000;-10 
0-0-15-157000;-17 
0-0-15-159000;-21 
0-0-15-161000;-11 
0-0-15-163000;-24 
0-0-15-165000;0 
0-0-15-166000;-35 
0-0-15-168000;-23 
0-0-15-170000;-5 
0-0-15-172000;-14 
0-0-15-175000;-31 
0-0-15-177000;-6 
0-0-15-179000;-32 
0-0-15-181000;-23 
0-0-15-183000;-12 
0-0-15-185000;-28 
0-0-15-187000;-18 
0-0-15-189000;-13 
0-0-15-191000;-33 
0-0-15-193000;-10 
0-0-15-195000;-18 
0-0-15-197000;-38 
0-0-15-199000;-13 
0-0-15-201000;-18 
0-0-15-203000;-23 
0-0-15-205000;-22 
0-0-15-207000;-11 
0-0-15-208000;-24 
0-0-15-211000;-25 
0-0-15-213000;-13 
0-0-15-215000;-10 
0-0-15-217000;-12 
0-0-15-219000;5 
0-0-15-221000;-13 
0-0-15-223000;-3 
0-0-15-225000;-12 
0-0-15-227000;-8 
0-0-15-229000;6 
0-0-15-231000;-14 
0-0-15-233000;17 
0-0-15-235000;3 
0-0-15-237000;14 
0-0-15-239000;10 
0-0-15-241000;2 
0-0-15-243000;1 
0-0-15-246000;4 
0-0-15-248000;-4 
0-0-15-249000;6 
0-0-15-251000;-19 
0-0-15-253000;6 
0-0-15-255000;26 
0-0-15-257000;16 
0-0-15-259000;8 
0-0-15-261000;23 
0-0-15-263000;1 
0-0-15-265000;-4 
0-0-15-267000;9 
0-0-15-269000;11 
0-0-15-271000;-9 
0-0-15-273000;-6 
0-0-15-275000;12 
0-0-15-277000;5 
0-0-15-280000;11 
0-0-15-282000;10 
0-0-15-284000;5 
0-0-15-286000;-6 
0-0-15-288000;16 
0-0-15-290000;-20 
0-0-15-291000;12 
0-0-15-293000;7 
0-0-15-295000;-6 
0-0-15-297000;-7 
0-0-15-299000;10 
0-0-15-301000;14 
0-0-15-303000;-9 
0-0-15-305000;-4 
0-0-15-307000;6 
0-0-15-309000;-9 
0-0-15-311000;2 
0-0-15-314000;3 
0-0-15-316000;2 
0-0-15-318000;14 
0-0-15-320000;8 
0-0-15-322000;-8 
0-0-15-324000;11 
0-0-15-326000;-15 
0-0-15-328000;-2 
0-0-15-330000;-5 
0-0-15-332000;3 
0-0-15-333000;3 
0-0-15-335000;-11 
0-0-15-337000;15 
0-0-15-339000;-5 
0-0-15-341000;7 
0-0-15-343000;-32 
0-0-15-345000;10 
0-0-15-348000;0 
0-0-15-350000;-15 
0-0-15-362000;11 
0-0-15-364000;-4 
0-0-15-366000;5 
0-0-15-368000;4 
0-0-15-370000;-4 
0-0-15-372000;6 
0-0-15-374000;-22 
0-0-15-375000;-9 
0-0-15-377000;1 
0-0-15-379000;12 
0-0-15-382000;-24 
0-0-15-384000;11 
0-0-15-386000;0 
0-0-15-388000;-13 
0-0-15-390000;7 
0-0-15-392000;-12 
0-0-15-394000;-3 
0-0-15-398000;-4 
0-0-15-400000;10 
0-0-15-402000;-20 
0-0-15-404000;3 
0-0-15-406000;-3 
0-0-15-408000;-16 
0-0-15-410000;9 
0-0-15-412000;-8 
0-0-15-414000;6 
0-0-15-416000;9 
0-0-15-418000;-6 
0-0-15-420000;-11 
0-0-15-422000;8 
0-0-15-424000;-4 
0-0-15-426000;11 
0-0-15-428000;-30 
0-0-15-430000;-22 
0-0-15-432000;13 
0-0-15-434000;8 
0-0-15-436000;-10 
0-0-15-438000;9 
0-0-15-440000;8 
0-0-15-442000;-7 
0-0-15-444000;8 
0-0-15-446000;-12 
0-0-15-448000;-23 
0-0-15-450000;1 
0-0-15-453000;1 
0-0-15-455000;-20 
0-0-15-457000;3 
0-0-15-458000;17 
0-0-15-460000;-10 
0-0-15-462000;-13 
0-0-15-464000;0 
0-0-15-466000;-32 
0-0-15-468000;-16 
0-0-15-470000;-4 
0-0-15-472000;-11 
0-0-15-474000;-26 
0-0-15-476000;-7 
0-0-15-478000;1 
0-0-15-480000;-28 
0-0-15-482000;-6 
0-0-15-484000;-7 
0-0-15-487000;-46 
0-0-15-489000;-29 
0-0-15-491000;-11 
0-0-15-493000;-25 
0-0-15-495000;-20 
0-0-15-497000;0 
0-0-15-499000;-19 
0-0-15-500000;-20 
0-0-15-502000;-14 
0-0-15-504000;-45 
0-0-15-506000;-8 
0-0-15-508000;-5 
0-0-15-510000;-19 
0-0-15-512000;-41 
0-0-15-514000;12 
0-0-15-516000;3 
0-0-15-518000;-4 
0-0-15-521000;13 
0-0-15-523000;7 
0-0-15-525000;-23 
0-0-15-527000;18 
0-0-15-529000;8 
0-0-15-531000;15 
0-0-15-533000;5 
0-0-15-535000;-8 
0-0-15-537000;14 
0-0-15-539000;8 
0-0-15-541000;11 
0-0-15-542000;20 
0-0-15-544000;-2 
0-0-15-546000;-2 
0-0-15-548000;13 
0-0-15-550000;-6 
0-0-15-552000;4 
0-0-15-555000;6 
0-0-15-557000;20 
0-0-15-559000;-2 
0-0-15-561000;20 
0-0-15-563000;6 
0-0-15-577000;3 
0-0-15-579000;10 
0-0-15-581000;8 
0-0-15-583000;-6 
0-0-15-584000;22 
0-0-15-586000;-7 
0-0-15-588000;6 
0-0-15-591000;7 
0-0-15-593000;9 
0-0-15-595000;16 
0-0-15-597000;3 
0-0-15-599000;30 
0-0-15-601000;1 
0-0-15-603000;4 
0-0-15-605000;2 
0-0-15-607000;-17 
0-0-15-609000;-28 
0-0-15-611000;-41 
0-0-15-613000;-69 
0-0-15-615000;-87 
0-0-15-617000;-121 
0-0-15-619000;-144 
0-0-15-621000;-150 
0-0-15-623000;-189 
0-0-15-625000;-162 
0-0-15-627000;-180 
0-0-15-629000;-181 
0-0-15-631000;-144 
0-0-15-633000;-144 
0-0-15-635000;-67 
0-0-15-637000;-50 
0-0-15-639000;-4 
0-0-15-641000;42 
0-0-15-643000;28 
0-0-15-645000;64 
0-0-15-647000;55 
0-0-15-649000;41 
0-0-15-651000;55 
0-0-15-653000;35 
0-0-15-655000;26 
0-0-15-657000;25 
0-0-15-660000;35 
0-0-15-662000;14 
0-0-15-664000;25 
0-0-15-666000;22 
0-0-15-667000;21 
0-0-15-669000;23 
0-0-15-671000;23 
0-0-15-673000;33 
0-0-15-675000;16 
0-0-15-677000;31 
0-0-15-679000;26 
0-0-15-681000;15 
0-0-15-683000;27 
0-0-15-685000;32 
0-0-15-687000;19 
0-0-15-689000;33 
0-0-15-691000;32 
0-0-15-694000;13 
0-0-15-696000;23 
0-0-15-698000;15 
0-0-15-700000;20 
0-0-15-702000;-1 
0-0-15-704000;29 
0-0-15-706000;5 
0-0-15-708000;21 
0-0-15-709000;-15 
0-0-15-711000;20 
0-0-15-713000;5 
0-0-15-715000;17 
0-0-15-717000;18 
0-0-15-719000;17 
0-0-15-721000;1 
0-0-15-723000;12 
0-0-15-725000;2 
0-0-15-728000;-6 
0-0-15-730000;2 
0-0-15-732000;11 
0-0-15-734000;-2 
0-0-15-736000;-10 
0-0-15-738000;23 
0-0-15-740000;3 
0-0-15-742000;-1 
0-0-15-744000;12 
0-0-15-746000;-7 
0-0-15-748000;10 
0-0-15-749000;-11 
0-0-15-751000;-3 
0-0-15-753000;1 
0-0-15-755000;16 
0-0-15-757000;11 
0-0-15-759000;-12 
0-0-15-762000;9 
0-0-15-764000;-15 
0-0-15-766000;-4 
0-0-15-768000;-10 
0-0-15-770000;-6 
0-0-15-772000;5 
0-0-15-774000;-35 
0-0-15-776000;1 
0-0-15-786000;-17 
0-0-15-788000;-6 
0-0-15-790000;-7 
0-0-15-791000;-21 
0-0-15-793000;-7 
0-0-15-795000;-8 
0-0-15-798000;-3 
0-0-15-800000;-27 
0-0-15-802000;-26 
0-0-15-804000;-11 
0-0-15-806000;-24 
0-0-15-808000;-20 
0-0-15-810000;-19 
0-0-15-812000;-46 
0-0-15-814000;-14 
0-0-15-816000;-10 
0-0-15-818000;-20 
0-0-15-820000;-29 
0-0-15-824000;-26 
0-0-15-826000;-20 
0-0-15-828000;-10 
0-0-15-830000;-17 
0-0-15-833000;-32 
0-0-15-834000;-11 
0-0-15-836000;-22 
0-0-15-838000;-22 
0-0-15-840000;-12 
0-0-15-842000;-27 
0-0-15-844000;-18 
0-0-15-846000;-19 
0-0-15-848000;-26 
0-0-15-850000;-22 
0-0-15-852000;-15 
0-0-15-854000;-26 
0-0-15-856000;-12 
0-0-15-858000;-14 
0-0-15-860000;5 
0-0-15-862000;-24 
0-0-15-864000;1 
0-0-15-867000;-29 
0-0-15-869000;-11 
0-0-15-871000;-4 
0-0-15-873000;-6 
0-0-15-874000;-14 
0-0-15-876000;12 
0-0-15-878000;14 
0-0-15-880000;-5 
0-0-15-882000;7 
0-0-15-884000;6 
0-0-15-886000;4 
0-0-15-888000;10 
0-0-15-890000;-2 
0-0-15-892000;-1 
0-0-15-894000;16 
0-0-15-896000;-22 
0-0-15-898000;15 
0-0-15-901000;22 
0-0-15-903000;5 
0-0-15-905000;-4 
0-0-15-907000;22 
0-0-15-909000;-6 
0-0-15-911000;3 
0-0-15-913000;-5 
0-0-15-915000;11 
0-0-15-916000;3 
0-0-15-918000;13 
0-0-15-920000;2 
0-0-15-922000;14 
0-0-15-924000;11 
0-0-15-926000;9 
0-0-15-928000;-3 
0-0-15-930000;-2 
0-0-15-932000;8 
0-0-15-935000;-10 
0-0-15-937000;6 
0-0-15-939000;7 
0-0-15-941000;-5 
0-0-15-943000;-5 
0-0-15-945000;-21 
0-0-15-947000;4 
0-0-15-949000;6 
0-0-15-951000;-23 
0-0-15-953000;21 
0-0-15-955000;-12 
0-0-15-957000;10 
0-0-15-958000;11 
0-0-15-960000;-6 
0-0-15-962000;17 
0-0-15-964000;-4 
0-0-15-966000;3 
0-0-15-969000;0 
0-0-15-971000;-18 
0-0-15-973000;7 
0-0-15-975000;-8 
0-0-15-977000;14 
0-0-15-979000;-13 
0-0-15-981000;3 
0-0-15-983000;7 
0-0-15-985000;-8 
0-0-15-987000;5 
0-0-15-999000;-3 
0-0-16-000000;12 
0-0-16-002000;-8 
0-0-16-005000;6 
0-0-16-007000;-1 
0-0-16-009000;-23 
0-0-16-011000;5 
0-0-16-013000;-12 
0-0-16-015000;9 
0-0-16-017000;4 
0-0-16-019000;-5 
0-0-16-021000;9 
0-0-16-023000;-11 
0-0-16-025000;10 
0-0-16-027000;10 
0-0-16-029000;4 
0-0-16-031000;3 
0-0-16-033000;-10 
0-0-16-035000;-14 
0-0-16-037000;8 
0-0-16-040000;-1 
0-0-16-041000;10 
0-0-16-043000;-20 
0-0-16-045000;-12 
0-0-16-047000;-9 
0-0-16-049000;-4 
0-0-16-051000;-7 
0-0-16-053000;-4 
0-0-16-055000;-2 
0-0-16-057000;-4 
0-0-16-059000;9 
0-0-16-061000;-9 
0-0-16-063000;21 
0-0-16-065000;-4 
0-0-16-067000;-9 
0-0-16-069000;6 
0-0-16-071000;-19 
0-0-16-074000;-7 
0-0-16-076000;6 
0-0-16-078000;-4 
0-0-16-080000;19 
0-0-16-082000;-7 
0-0-16-083000;9 
0-0-16-085000;13 
0-0-16-087000;-10 
0-0-16-089000;4 
0-0-16-091000;-9 
0-0-16-093000;-29 
0-0-16-095000;3 
0-0-16-097000;9 
0-0-16-099000;-2 
0-0-16-101000;-5 
0-0-16-103000;-1 
0-0-16-105000;-14 
0-0-16-108000;-16 
0-0-16-110000;5 
0-0-16-112000;-12 
0-0-16-114000;-22 
0-0-16-116000;-1 
0-0-16-118000;4 
0-0-16-120000;-30 
0-0-16-122000;4 
0-0-16-124000;-8 
0-0-16-125000;-26 
0-0-16-127000;-22 
0-0-16-129000;-4 
0-0-16-131000;-27 
0-0-16-133000;-18 
0-0-16-135000;-3 
0-0-16-137000;-21 
0-0-16-139000;-21 
0-0-16-142000;-6 
0-0-16-144000;-19 
0-0-16-146000;-25 
0-0-16-148000;-14 
0-0-16-150000;-32 
0-0-16-152000;-5 
0-0-16-154000;4 
0-0-16-156000;-3 
0-0-16-158000;4 
0-0-16-160000;0 
0-0-16-162000;18 
0-0-16-164000;6 
0-0-16-166000;-10 
0-0-16-167000;26 
0-0-16-169000;-4 
0-0-16-171000;13 
0-0-16-173000;16 
0-0-16-176000;13 
0-0-16-178000;20 
0-0-16-180000;22 
0-0-16-182000;7 
0-0-16-184000;10 
0-0-16-186000;21 
0-0-16-188000;1 
0-0-16-190000;0 
0-0-16-192000;6 
0-0-16-194000;14 
0-0-16-196000;-4 
0-0-16-198000;17 
0-0-16-209000;2 
0-0-16-212000;-8 
0-0-16-214000;25 
0-0-16-216000;5 
0-0-16-218000;4 
0-0-16-220000;22 
0-0-16-222000;2 
0-0-16-224000;-15 
0-0-16-226000;12 
0-0-16-228000;-7 
0-0-16-230000;13 
0-0-16-232000;14 
0-0-16-234000;2 
0-0-16-236000;25 
0-0-16-238000;6 
0-0-16-240000;5 
0-0-16-242000;20 
0-0-16-244000;-2 
0-0-16-247000;-5 
0-0-16-250000;-33 
0-0-16-252000;-45 
0-0-16-254000;-72 
0-0-16-256000;-77 
0-0-16-258000;-97 
0-0-16-260000;-138 
0-0-16-262000;-156 
0-0-16-264000;-183 
0-0-16-266000;-177 
0-0-16-268000;-180 
0-0-16-270000;-168 
0-0-16-272000;-149 
0-0-16-274000;-135 
0-0-16-276000;-97 
0-0-16-278000;-37 
0-0-16-281000;-14 
0-0-16-283000;26 
0-0-16-285000;61 
0-0-16-287000;61 
0-0-16-289000;44 
0-0-16-291000;48 
0-0-16-292000;64 
0-0-16-294000;45 
0-0-16-296000;12 
0-0-16-298000;51 
0-0-16-300000;31 
0-0-16-302000;23 
0-0-16-304000;34 
0-0-16-306000;36 
0-0-16-308000;30 
0-0-16-310000;32 
0-0-16-312000;19 
0-0-16-315000;37 
0-0-16-317000;43 
0-0-16-319000;23 
0-0-16-321000;40 
0-0-16-323000;18 
0-0-16-325000;20 
0-0-16-327000;27 
0-0-16-329000;29 
0-0-16-331000;31 
0-0-16-333000;20 
0-0-16-334000;18 
0-0-16-336000;24 
0-0-16-338000;29 
0-0-16-340000;13 
0-0-16-342000;11 
0-0-16-344000;20 
0-0-16-346000;22 
0-0-16-349000;23 
0-0-16-351000;-3 
0-0-16-353000;16 
0-0-16-355000;21 
0-0-16-357000;15 
0-0-16-359000;23 
0-0-16-361000;15 
0-0-16-363000;27 
0-0-16-365000;6 
0-0-16-367000;22 
0-0-16-369000;-10 
0-0-16-371000;25 
0-0-16-373000;-1 
0-0-16-374000;19 
0-0-16-376000;0 
0-0-16-378000;28 
0-0-16-380000;-11 
0-0-16-382000;25 
0-0-16-385000;2 
0-0-16-387000;9 
0-0-16-389000;-8 
0-0-16-391000;13 
0-0-16-393000;9 
0-0-16-395000;-1 
0-0-16-397000;8 
0-0-16-399000;2 
0-0-16-401000;16 
0-0-16-403000;6 
0-0-16-405000;-8 
0-0-16-407000;5 
0-0-16-409000;-10 
0-0-16-411000;-7 
0-0-16-421000;-6 
0-0-16-423000;8 
0-0-16-425000;-5 
0-0-16-427000;-19 
0-0-16-429000;-2 
0-0-16-431000;-14 
0-0-16-433000;-8 
0-0-16-435000;-25 
0-0-16-437000;-1 
0-0-16-439000;-10 
0-0-16-441000;-10 
0-0-16-443000;-12 
0-0-16-445000;-14 
0-0-16-447000;-19 
0-0-16-449000;-22 
0-0-16-451000;-7 
0-0-16-454000;-28 
0-0-16-456000;-1 
0-0-16-458000;-33 
0-0-16-459000;-6 
0-0-16-461000;-12 
0-0-16-463000;-13 
0-0-16-465000;-35 
0-0-16-467000;-24 
0-0-16-469000;-9 
0-0-16-471000;-28 
0-0-16-473000;-23 
0-0-16-475000;-10 
0-0-16-477000;-5 
0-0-16-479000;-7 
0-0-16-481000;-26 
0-0-16-483000;-12 
0-0-16-485000;-14 
0-0-16-488000;-29 
0-0-16-490000;-13 
0-0-16-492000;-30 
0-0-16-494000;9 
0-0-16-496000;-21 
0-0-16-498000;3 
0-0-16-499000;-13 
0-0-16-501000;-7 
0-0-16-503000;-7 
0-0-16-505000;11 
0-0-16-507000;-17 
0-0-16-509000;1 
0-0-16-511000;-28 
0-0-16-513000;4 
0-0-16-515000;-6 
0-0-16-517000;20 
0-0-16-519000;-15 
0-0-16-522000;12 
0-0-16-524000;-2 
0-0-16-526000;17 
0-0-16-528000;8 
0-0-16-530000;10 
0-0-16-532000;16 
0-0-16-534000;10 
0-0-16-536000;21 
0-0-16-538000;3 
0-0-16-540000;25 
0-0-16-541000;9 
0-0-16-543000;22 
0-0-16-545000;3 
0-0-16-547000;28 
0-0-16-549000;2 
0-0-16-551000;13 
0-0-16-553000;2 
0-0-16-556000;25 
0-0-16-558000;-19 
0-0-16-560000;18 
0-0-16-562000;3 
0-0-16-564000;15 
0-0-16-566000;-7 
0-0-16-568000;15 
0-0-16-570000;10 
0-0-16-572000;1 
0-0-16-574000;16 
0-0-16-576000;-3 
0-0-16-578000;32 
0-0-16-580000;-1 
0-0-16-582000;11 
0-0-16-583000;-4 
0-0-16-585000;12 
0-0-16-587000;6 
0-0-16-589000;-14 
0-0-16-592000;3 
0-0-16-594000;2 
0-0-16-596000;24 
0-0-16-598000;15 
0-0-16-600000;10 
0-0-16-602000;14 
0-0-16-604000;0 
0-0-16-606000;15 
0-0-16-608000;-1 
0-0-16-610000;13 
0-0-16-612000;-22 
0-0-16-614000;-7 
0-0-16-616000;-11 
0-0-16-618000;5 
0-0-16-620000;2 
0-0-16-632000;14 
0-0-16-634000;2 
0-0-16-636000;-7 
0-0-16-638000;23 
0-0-16-640000;-8 
0-0-16-642000;5 
0-0-16-644000;-1 
0-0-16-646000;12 
0-0-16-648000;-9 
0-0-16-650000;7 
0-0-16-652000;4 
0-0-16-654000;-5 
0-0-16-656000;13 
0-0-16-658000;-3 
0-0-16-661000;-2 
0-0-16-663000;-5 
0-0-16-665000;15 
0-0-16-666000;4 
0-0-16-668000;4 
0-0-16-670000;-12 
0-0-16-674000;-5 
0-0-16-676000;1 
0-0-16-678000;5 
0-0-16-680000;8 
0-0-16-682000;12 
0-0-16-684000;-6 
0-0-16-686000;4 
0-0-16-688000;4 
0-0-16-690000;6 
0-0-16-692000;-4 
0-0-16-695000;6 
0-0-16-697000;-10 
0-0-16-699000;22 
0-0-16-701000;-2 
0-0-16-703000;8 
0-0-16-705000;5 
0-0-16-707000;-9 
0-0-16-708000;10 
0-0-16-710000;-12 
0-0-16-712000;13 
0-0-16-714000;2 
0-0-16-716000;-15 
0-0-16-718000;12 
0-0-16-720000;-4 
0-0-16-722000;8 
0-0-16-724000;5 
0-0-16-726000;-6 
0-0-16-729000;15 
0-0-16-731000;-1 
0-0-16-733000;-8 
0-0-16-735000;2 
0-0-16-737000;5 
0-0-16-739000;-7 
0-0-16-741000;12 
0-0-16-743000;-13 
0-0-16-745000;7 
0-0-16-747000;-19 
0-0-16-749000;-12 
0-0-16-750000;-6 
0-0-16-752000;-12 
0-0-16-754000;6 
0-0-16-756000;-17 
0-0-16-758000;6 
0-0-16-760000;-17 
0-0-16-763000;-13 
0-0-16-765000;-20 
0-0-16-767000;-15 
0-0-16-769000;-14 
0-0-16-771000;-27 
0-0-16-773000;14 
0-0-16-775000;-22 
0-0-16-777000;-7 
0-0-16-779000;-14 
0-0-16-781000;-23 
0-0-16-783000;-8 
0-0-16-785000;-18 
0-0-16-787000;0 
0-0-16-789000;-40 
0-0-16-791000;-11 
0-0-16-792000;-1 
0-0-16-794000;-16 
0-0-16-796000;7 
0-0-16-799000;-8 
0-0-16-801000;17 
0-0-16-803000;14 
0-0-16-805000;3 
0-0-16-807000;11 
0-0-16-809000;16 
0-0-16-811000;13 
0-0-16-813000;-1 
0-0-16-815000;10 
0-0-16-817000;19 
0-0-16-819000;-5 
0-0-16-821000;31 
0-0-16-823000;-1 
0-0-16-825000;22 
0-0-16-827000;-15 
0-0-16-829000;19 
0-0-16-831000;8 
0-0-16-833000;-6 
0-0-16-845000;14 
0-0-16-847000;17 
0-0-16-849000;-2 
0-0-16-851000;17 
0-0-16-853000;3 
0-0-16-855000;-4 
0-0-16-857000;13 
0-0-16-859000;20 
0-0-16-861000;-3 
0-0-16-863000;15 
0-0-16-865000;-12 
0-0-16-868000;12 
0-0-16-870000;11 
0-0-16-872000;-3 
0-0-16-874000;19 
0-0-16-875000;27 
0-0-16-877000;18 
0-0-16-879000;11 
0-0-16-881000;28 
0-0-16-883000;7 
0-0-16-885000;25 
0-0-16-887000;4 
0-0-16-889000;-22 
0-0-16-891000;-29 
0-0-16-893000;-45 
0-0-16-895000;-75 
0-0-16-897000;-76 
0-0-16-899000;-118 
0-0-16-902000;-134 
0-0-16-904000;-189 
0-0-16-906000;-161 
0-0-16-908000;-202 
0-0-16-910000;-184 
0-0-16-912000;-208 
0-0-16-914000;-160 
0-0-16-916000;-134 
0-0-16-917000;-110 
0-0-16-919000;-80 
0-0-16-921000;-11 
0-0-16-923000;10 
0-0-16-925000;41 
0-0-16-927000;39 
0-0-16-929000;54 
0-0-16-931000;35 
0-0-16-933000;29 
0-0-16-936000;47 
0-0-16-938000;30 
0-0-16-940000;15 
0-0-16-942000;40 
0-0-16-944000;25 
0-0-16-946000;39 
0-0-16-948000;27 
0-0-16-950000;28 
0-0-16-952000;28 
0-0-16-954000;33 
0-0-16-956000;31 
0-0-16-958000;17 
0-0-16-959000;52 
0-0-16-961000;39 
0-0-16-963000;44 
0-0-16-965000;21 
0-0-16-967000;39 
0-0-16-970000;41 
0-0-16-972000;10 
0-0-16-974000;30 
0-0-16-976000;18 
0-0-16-978000;17 
0-0-16-980000;34 
0-0-16-982000;24 
0-0-16-984000;26 
0-0-16-986000;18 
0-0-16-988000;23 
0-0-16-990000;18 
0-0-16-992000;13 
0-0-16-994000;22 
0-0-16-996000;-14 
0-0-16-998000;32 
0-0-16-999000;6 
0-0-17-001000;23 
0-0-17-003000;-12 
0-0-17-006000;27 
0-0-17-008000;13 
0-0-17-010000;-7 
0-0-17-012000;19 
0-0-17-014000;-2 
0-0-17-016000;0 
0-0-17-018000;-2 
0-0-17-020000;21 
0-0-17-022000;-8 
0-0-17-024000;10 
0-0-17-026000;8 
0-0-17-028000;1 
0-0-17-030000;15 
0-0-17-032000;-4 
0-0-17-034000;-16 
0-0-17-036000;15 
0-0-17-038000;3 
0-0-17-041000;8 
0-0-17-042000;-10 
0-0-17-044000;7 
0-0-17-056000;6 
0-0-17-058000;-10 
0-0-17-060000;8 
0-0-17-062000;-11 
0-0-17-064000;9 
0-0-17-066000;-17 
0-0-17-068000;-2 
0-0-17-070000;-11 
0-0-17-072000;-6 
0-0-17-075000;-20 
0-0-17-077000;-4 
0-0-17-079000;-22 
0-0-17-081000;-18 
0-0-17-083000;-14 
0-0-17-084000;-11 
0-0-17-086000;-12 
0-0-17-088000;-44 
0-0-17-090000;-12 
0-0-17-092000;-26 
0-0-17-094000;-14 
0-0-17-096000;-13 
0-0-17-100000;-16 
0-0-17-102000;-23 
0-0-17-104000;-24 
0-0-17-106000;-10 
0-0-17-109000;-12 
0-0-17-111000;-27 
0-0-17-113000;-16 
0-0-17-115000;-32 
0-0-17-117000;-33 
0-0-17-119000;-3 
0-0-17-121000;-27 
0-0-17-123000;-18 
0-0-17-124000;-7 
0-0-17-126000;-19 
0-0-17-128000;-28 
0-0-17-130000;-26 
0-0-17-132000;-9 
0-0-17-134000;-38 
0-0-17-136000;2 
0-0-17-138000;-18 
0-0-17-140000;-5 
0-0-17-143000;-5 
0-0-17-145000;-17 
0-0-17-147000;3 
0-0-17-149000;-14 
0-0-17-151000;-5 
0-0-17-153000;-7 
0-0-17-155000;-21 
0-0-17-157000;12 
0-0-17-159000;-3 
0-0-17-161000;7 
0-0-17-163000;11 
0-0-17-165000;5 
0-0-17-166000;30 
0-0-17-168000;-4 
0-0-17-170000;12 
0-0-17-172000;1 
0-0-17-174000;20 
0-0-17-176000;15 
0-0-17-179000;12 
0-0-17-181000;19 
0-0-17-183000;-14 
0-0-17-185000;11 
0-0-17-187000;-10 
0-0-17-189000;18 
0-0-17-191000;-5 
0-0-17-193000;-9 
0-0-17-195000;12 
0-0-17-197000;5 
0-0-17-199000;18 
0-0-17-201000;16 
0-0-17-203000;7 
0-0-17-205000;17 
0-0-17-207000;-9 
0-0-17-208000;2 
0-0-17-210000;-13 
0-0-17-213000;6 
0-0-17-215000;15 
0-0-17-217000;0 
0-0-17-219000;12 
0-0-17-221000;11 
0-0-17-223000;1 
0-0-17-225000;12 
0-0-17-227000;-7 
0-0-17-229000;6 
0-0-17-231000;-12 
0-0-17-233000;1 
0-0-17-235000;-2 
0-0-17-237000;4 
0-0-17-239000;24 
0-0-17-241000;-5 
0-0-17-243000;2 
0-0-17-245000;1 
0-0-17-248000;-7 
0-0-17-249000;4 
0-0-17-251000;3 
0-0-17-253000;-12 
0-0-17-255000;-10 
0-0-17-257000;-2 
0-0-17-267000;18 
0-0-17-269000;-6 
0-0-17-271000;7 
0-0-17-273000;6 
0-0-17-275000;-13 
0-0-17-277000;19 
0-0-17-279000;-13 
0-0-17-282000;12 
0-0-17-284000;-16 
0-0-17-286000;6 
0-0-17-288000;-16 
0-0-17-290000;8 
0-0-17-291000;-17 
0-0-17-293000;9 
0-0-17-295000;-15 
0-0-17-297000;18 
0-0-17-299000;-4 
0-0-17-301000;8 
0-0-17-303000;-14 
0-0-17-305000;14 
0-0-17-307000;-8 
0-0-17-309000;3 
0-0-17-311000;-25 
0-0-17-313000;6 
0-0-17-316000;8 
0-0-17-318000;-9 
0-0-17-320000;14 
0-0-17-322000;-1 
0-0-17-324000;19 
0-0-17-326000;-13 
0-0-17-328000;10 
0-0-17-330000;-20 
0-0-17-332000;14 
0-0-17-333000;-11 
0-0-17-335000;2 
0-0-17-337000;-1 
0-0-17-339000;-5 
0-0-17-341000;18 
0-0-17-343000;14 
0-0-17-345000;-8 
0-0-17-347000;10 
0-0-17-350000;-7 
0-0-17-352000;17 
0-0-17-354000;-8 
0-0-17-356000;0 
0-0-17-358000;-12 
0-0-17-360000;-4 
0-0-17-362000;-8 
0-0-17-364000;-11 
0-0-17-366000;5 
0-0-17-368000;-24 
0-0-17-370000;13 
0-0-17-372000;-15 
0-0-17-374000;4 
0-0-17-375000;-12 
0-0-17-377000;15 
0-0-17-379000;-8 
0-0-17-381000;4 
0-0-17-383000;-15 
0-0-17-386000;0 
0-0-17-388000;-5 
0-0-17-390000;2 
0-0-17-392000;-21 
0-0-17-394000;-6 
0-0-17-396000;-36 
0-0-17-398000;4 
0-0-17-400000;-21 
0-0-17-402000;-8 
0-0-17-404000;-25 
0-0-17-406000;-10 
0-0-17-408000;-30 
0-0-17-410000;-6 
0-0-17-412000;-23 
0-0-17-414000;-14 
0-0-17-416000;-42 
0-0-17-417000;-7 
0-0-17-420000;-14 
0-0-17-422000;-14 
0-0-17-424000;-18 
0-0-17-426000;-15 
0-0-17-428000;-11 
0-0-17-430000;-24 
0-0-17-432000;-11 
0-0-17-434000;-41 
0-0-17-436000;-5 
0-0-17-438000;-31 
0-0-17-440000;-4 
0-0-17-442000;-3 
0-0-17-444000;-9 
0-0-17-446000;2 
0-0-17-448000;-10 
0-0-17-450000;-12 
0-0-17-452000;1 
0-0-17-455000;-6 
0-0-17-457000;13 
0-0-17-458000;9 
0-0-17-460000;0 
0-0-17-462000;25 
0-0-17-464000;-1 
0-0-17-466000;7 
0-0-17-478000;5 
0-0-17-480000;-3 
0-0-17-482000;5 
0-0-17-484000;11 
0-0-17-486000;7 
0-0-17-489000;-4 
0-0-17-491000;12 
0-0-17-493000;0 
0-0-17-495000;4 
0-0-17-497000;-1 
0-0-17-499000;15 
0-0-17-500000;6 
0-0-17-502000;10 
0-0-17-504000;0 
0-0-17-506000;-4 
0-0-17-508000;15 
0-0-17-510000;-13 
0-0-17-512000;4 
0-0-17-514000;1 
0-0-17-516000;0 
0-0-17-518000;-3 
0-0-17-520000;18 
0-0-17-525000;-7 
0-0-17-527000;-6 
0-0-17-529000;16 
0-0-17-531000;8 
0-0-17-533000;21 
0-0-17-535000;-3 
0-0-17-537000;14 
0-0-17-539000;28 
0-0-17-541000;-13 
0-0-17-542000;-19 
0-0-17-544000;-34 
0-0-17-546000;-79 
0-0-17-548000;-72 
0-0-17-550000;-104 
0-0-17-552000;-142 
0-0-17-554000;-138 
0-0-17-557000;-173 
0-0-17-559000;-201 
0-0-17-561000;-176 
0-0-17-563000;-194 
0-0-17-565000;-190 
0-0-17-567000;-163 
0-0-17-569000;-132 
0-0-17-571000;-91 
0-0-17-573000;-76 
0-0-17-575000;1 
0-0-17-577000;14 
0-0-17-579000;50 
0-0-17-581000;35 
0-0-17-583000;55 
0-0-17-584000;58 
0-0-17-586000;31 
0-0-17-588000;45 
0-0-17-590000;9 
0-0-17-593000;23 
0-0-17-595000;18 
0-0-17-597000;20 
0-0-17-599000;35 
0-0-17-601000;21 
0-0-17-603000;15 
0-0-17-605000;31 
0-0-17-607000;30 
0-0-17-609000;40 
0-0-17-611000;-2 
0-0-17-613000;24 
0-0-17-615000;12 
0-0-17-617000;33 
0-0-17-619000;28 
0-0-17-621000;24 
0-0-17-623000;26 
0-0-17-624000;10 
0-0-17-627000;25 
0-0-17-629000;25 
0-0-17-631000;-9 
0-0-17-633000;17 
0-0-17-635000;12 
0-0-17-637000;19 
0-0-17-639000;23 
0-0-17-641000;21 
0-0-17-643000;18 
0-0-17-645000;9 
0-0-17-647000;20 
0-0-17-649000;11 
0-0-17-651000;12 
0-0-17-653000;14 
0-0-17-655000;0 
0-0-17-657000;6 
0-0-17-659000;-2 
0-0-17-662000;19 
0-0-17-664000;-4 
0-0-17-666000;30 
0-0-17-667000;-6 
0-0-17-669000;12 
0-0-17-671000;-10 
0-0-17-673000;9 
0-0-17-675000;-6 
0-0-17-677000;16 
0-0-17-679000;1 
0-0-17-691000;7 
0-0-17-693000;-5 
0-0-17-696000;-5 
0-0-17-698000;-16 
0-0-17-700000;4 
0-0-17-702000;-5 
0-0-17-704000;3 
0-0-17-706000;-7 
0-0-17-708000;-1 
0-0-17-709000;-11 
0-0-17-711000;-7 
0-0-17-713000;-14 
0-0-17-715000;-19 
0-0-17-717000;-10 
0-0-17-719000;-4 
0-0-17-721000;-16 
0-0-17-723000;1 
0-0-17-725000;-13 
0-0-17-727000;-6 
0-0-17-730000;-24 
0-0-17-732000;-3 
0-0-17-734000;-18 
0-0-17-736000;0 
0-0-17-738000;-18 
0-0-17-740000;-4 
0-0-17-742000;-20 
0-0-17-744000;0 
0-0-17-746000;-23 
0-0-17-748000;-18 
0-0-17-749000;-44 
0-0-17-751000;-21 
0-0-17-753000;-36 
0-0-17-755000;-29 
0-0-17-757000;-22 
0-0-17-759000;-15 
0-0-17-761000;-5 
0-0-17-763000;-22 
0-0-17-766000;-19 
0-0-17-768000;-30 
0-0-17-770000;3 
0-0-17-772000;-27 
0-0-17-774000;-15 
0-0-17-776000;-27 
0-0-17-778000;-23 
0-0-17-780000;-32 
0-0-17-782000;3 
0-0-17-784000;-22 
0-0-17-786000;-1 
0-0-17-788000;-24 
0-0-17-790000;-3 
0-0-17-791000;-14 
0-0-17-793000;-19 
0-0-17-795000;-4 
0-0-17-797000;-26 
0-0-17-800000;10 
0-0-17-802000;-14 
0-0-17-804000;1 
0-0-17-806000;-12 
0-0-17-808000;16 
0-0-17-810000;-16 
0-0-17-812000;2 
0-0-17-814000;4 
0-0-17-816000;1 
0-0-17-818000;17 
0-0-17-820000;-6 
0-0-17-822000;14 
0-0-17-824000;-4 
0-0-17-826000;-5 
0-0-17-828000;9 
0-0-17-830000;-3 
0-0-17-832000;15 
0-0-17-834000;-25 
0-0-17-836000;20 
0-0-17-838000;6 
0-0-17-840000;15 
0-0-17-842000;14 
0-0-17-844000;6 
0-0-17-846000;25 
0-0-17-848000;-7 
0-0-17-850000;10 
0-0-17-852000;9 
0-0-17-854000;18 
0-0-17-856000;7 
0-0-17-858000;3 
0-0-17-860000;16 
0-0-17-862000;2 
0-0-17-864000;12 
0-0-17-866000;4 
0-0-17-869000;7 
0-0-17-871000;-11 
0-0-17-873000;7 
0-0-17-874000;-3 
0-0-17-876000;8 
0-0-17-878000;3 
0-0-17-880000;-15 
0-0-17-882000;8 
0-0-17-884000;-2 
0-0-17-886000;3 
0-0-17-888000;-2 
0-0-17-890000;-6 
0-0-17-903000;-15 
0-0-17-905000;6 
0-0-17-907000;-13 
0-0-17-909000;9 
0-0-17-911000;-34 
0-0-17-913000;9 
0-0-17-915000;-11 
0-0-17-916000;15 
0-0-17-918000;-18 
0-0-17-920000;16 
0-0-17-922000;-5 
0-0-17-924000;10 
0-0-17-926000;-29 
0-0-17-928000;4 
0-0-17-930000;-25 
0-0-17-932000;-1 
0-0-17-934000;1 
0-0-17-937000;-13 
0-0-17-939000;10 
0-0-17-941000;-11 
0-0-17-943000;10 
0-0-17-945000;-15 
0-0-17-947000;15 
0-0-17-951000;-3 
0-0-17-953000;-20 
0-0-17-955000;4 
0-0-17-957000;-10 
0-0-17-958000;11 
0-0-17-960000;3 
0-0-17-962000;-4 
0-0-17-964000;-4 
0-0-17-966000;-3 
0-0-17-968000;11 
0-0-17-970000;-8 
0-0-17-973000;3 
0-0-17-975000;-17 
0-0-17-977000;-2 
0-0-17-979000;-5 
0-0-17-981000;0 
0-0-17-983000;5 
0-0-17-985000;-28 
0-0-17-987000;9 
0-0-17-989000;10 
0-0-17-991000;-17 
0-0-17-993000;12 
0-0-17-995000;-13 
0-0-17-997000;5 
0-0-17-999000;6 
0-0-18-000000;-2 
0-0-18-002000;-16 
0-0-18-004000;13 
0-0-18-007000;5 
0-0-18-009000;-5 
0-0-18-011000;12 
0-0-18-013000;-2 
0-0-18-015000;-4 
0-0-18-017000;-3 
0-0-18-019000;0 
0-0-18-021000;0 
0-0-18-023000;7 
0-0-18-025000;3 
0-0-18-027000;-3 
0-0-18-029000;-8 
0-0-18-031000;10 
0-0-18-033000;-12 
0-0-18-035000;5 
0-0-18-037000;-4 
0-0-18-039000;-10 
0-0-18-041000;-6 
0-0-18-043000;-1 
0-0-18-045000;2 
0-0-18-047000;0 
0-0-18-049000;-36 
0-0-18-051000;16 
0-0-18-053000;-13 
0-0-18-055000;-7 
0-0-18-057000;-10 
0-0-18-059000;-11 
0-0-18-061000;-13 
0-0-18-063000;-12 
0-0-18-065000;-18 
0-0-18-067000;-13 
0-0-18-069000;-36 
0-0-18-071000;-4 
0-0-18-073000;-22 
0-0-18-076000;-9 
0-0-18-078000;-18 
0-0-18-080000;1 
0-0-18-082000;-4 
0-0-18-083000;-24 
0-0-18-085000;-2 
0-0-18-087000;-45 
0-0-18-089000;-19 
0-0-18-091000;-33 
0-0-18-093000;-12 
0-0-18-095000;-51 
0-0-18-097000;1 
0-0-18-099000;-31 
0-0-18-101000;-4 
0-0-18-103000;-30 
0-0-18-116000;8 
0-0-18-118000;-13 
0-0-18-120000;15 
0-0-18-122000;-5 
0-0-18-124000;20 
0-0-18-125000;12 
0-0-18-127000;-10 
0-0-18-129000;14 
0-0-18-131000;-4 
0-0-18-133000;-5 
0-0-18-135000;0 
0-0-18-137000;5 
0-0-18-139000;26 
0-0-18-141000;1 
0-0-18-144000;26 
0-0-18-146000;4 
0-0-18-148000;1 
0-0-18-150000;5 
0-0-18-152000;-10 
0-0-18-154000;-3 
0-0-18-156000;-2 
0-0-18-158000;6 
0-0-18-160000;2 
0-0-18-162000;2 
0-0-18-164000;9 
0-0-18-166000;-6 
0-0-18-167000;28 
0-0-18-169000;-10 
0-0-18-171000;-1 
0-0-18-173000;8 
0-0-18-175000;6 
0-0-18-177000;0 
0-0-18-180000;-4 
0-0-18-182000;-1 
0-0-18-184000;1 
0-0-18-186000;10 
0-0-18-188000;-24 
0-0-18-190000;16 
0-0-18-192000;-8 
0-0-18-194000;13 
0-0-18-196000;4 
0-0-18-198000;18 
0-0-18-200000;-2 
0-0-18-202000;25 
0-0-18-204000;-7 
0-0-18-206000;2 
0-0-18-208000;-32 
0-0-18-209000;-49 
0-0-18-211000;-39 
0-0-18-214000;-92 
0-0-18-216000;-90 
0-0-18-218000;-129 
0-0-18-220000;-136 
0-0-18-222000;-177 
0-0-18-224000;-173 
0-0-18-226000;-178 
0-0-18-228000;-170 
0-0-18-230000;-178 
0-0-18-232000;-141 
0-0-18-234000;-134 
0-0-18-236000;-87 
0-0-18-238000;-64 
0-0-18-240000;13 
0-0-18-242000;24 
0-0-18-244000;57 
0-0-18-246000;36 
0-0-18-249000;55 
0-0-18-250000;56 
0-0-18-252000;28 
0-0-18-254000;29 
0-0-18-256000;26 
0-0-18-258000;24 
0-0-18-260000;27 
0-0-18-262000;20 
0-0-18-264000;36 
0-0-18-266000;5 
0-0-18-268000;34 
0-0-18-270000;15 
0-0-18-272000;15 
0-0-18-274000;30 
0-0-18-276000;15 
0-0-18-278000;38 
0-0-18-280000;25 
0-0-18-283000;21 
0-0-18-285000;27 
0-0-18-287000;11 
0-0-18-289000;24 
0-0-18-291000;26 
0-0-18-292000;-6 
0-0-18-294000;17 
0-0-18-296000;18 
0-0-18-298000;7 
0-0-18-300000;29 
0-0-18-302000;18 
0-0-18-304000;34 
0-0-18-306000;15 
0-0-18-308000;18 
0-0-18-310000;19 
0-0-18-312000;19 
0-0-18-314000;14 
0-0-18-327000;13 
0-0-18-329000;-6 
0-0-18-331000;21 
0-0-18-333000;-4 
0-0-18-334000;6 
0-0-18-336000;-8 
0-0-18-338000;23 
0-0-18-340000;8 
0-0-18-342000;12 
0-0-18-344000;-6 
0-0-18-346000;10 
0-0-18-348000;-19 
0-0-18-350000;17 
0-0-18-353000;-14 
0-0-18-355000;5 
0-0-18-357000;-21 
0-0-18-359000;-2 
0-0-18-361000;10 
0-0-18-363000;-1 
0-0-18-365000;1 
0-0-18-367000;-6 
0-0-18-369000;-6 
0-0-18-371000;1 
0-0-18-373000;-17 
0-0-18-376000;6 
0-0-18-378000;-14 
0-0-18-380000;5 
0-0-18-382000;-17 
0-0-18-384000;10 
0-0-18-387000;-13 
0-0-18-389000;-6 
0-0-18-391000;-27 
0-0-18-393000;0 
0-0-18-395000;-26 
0-0-18-397000;1 
0-0-18-399000;-22 
0-0-18-401000;-13 
0-0-18-403000;-20 
0-0-18-405000;-16 
0-0-18-407000;-15 
0-0-18-409000;-31 
0-0-18-411000;-24 
0-0-18-413000;-24 
0-0-18-415000;-40 
0-0-18-416000;-12 
0-0-18-418000;-14 
0-0-18-421000;-11 
0-0-18-423000;-1 
0-0-18-425000;-26 
0-0-18-427000;-20 
0-0-18-429000;-16 
0-0-18-431000;-29 
0-0-18-433000;-21 
0-0-18-435000;-18 
0-0-18-437000;-32 
0-0-18-439000;-11 
0-0-18-441000;-40 
0-0-18-443000;-9 
0-0-18-445000;-13 
0-0-18-447000;-28 
0-0-18-449000;-33 
0-0-18-451000;-9 
0-0-18-453000;-25 
0-0-18-456000;-23 
0-0-18-458000;-10 
0-0-18-459000;-22 
0-0-18-461000;6 
0-0-18-463000;-10 
0-0-18-465000;-15 
0-0-18-467000;-2 
0-0-18-469000;-14 
0-0-18-471000;-9 
0-0-18-473000;-8 
0-0-18-475000;-11 
0-0-18-477000;6 
0-0-18-479000;1 
0-0-18-481000;13 
0-0-18-483000;3 
0-0-18-485000;8 
0-0-18-487000;-2 
0-0-18-490000;11 
0-0-18-492000;23 
0-0-18-494000;-3 
0-0-18-496000;11 
0-0-18-498000;-4 
0-0-18-499000;17 
0-0-18-501000;4 
0-0-18-503000;10 
0-0-18-505000;9 
0-0-18-507000;-10 
0-0-18-509000;14 
0-0-18-511000;-8 
0-0-18-513000;6 
0-0-18-515000;9 
0-0-18-517000;2 
0-0-18-519000;17 
0-0-18-521000;-9 
0-0-18-524000;11 
0-0-18-526000;33 
0-0-18-528000;2 
0-0-18-540000;6 
0-0-18-541000;-2 
0-0-18-543000;-2 
0-0-18-545000;-19 
0-0-18-547000;13 
0-0-18-549000;-7 
0-0-18-551000;8 
0-0-18-553000;-7 
0-0-18-555000;11 
0-0-18-557000;-12 
0-0-18-560000;7 
0-0-18-562000;-2 
0-0-18-564000;12 
0-0-18-566000;-3 
0-0-18-568000;5 
0-0-18-570000;-3 
0-0-18-572000;-20 
0-0-18-574000;10 
0-0-18-576000;-2 
0-0-18-578000;-5 
0-0-18-580000;27 
0-0-18-582000;-2 
0-0-18-583000;14 
0-0-18-585000;-17 
0-0-18-587000;2 
0-0-18-589000;-18 
0-0-18-591000;7 
0-0-18-594000;-5 
0-0-18-596000;-3 
0-0-18-598000;-8 
0-0-18-600000;10 
0-0-18-602000;-2 
0-0-18-604000;0 
0-0-18-606000;-4 
0-0-18-608000;-5 
0-0-18-610000;-18 
0-0-18-612000;-6 
0-0-18-614000;6 
0-0-18-616000;-13 
0-0-18-618000;-11 
0-0-18-620000;0 
0-0-18-622000;15 
0-0-18-624000;-9 
0-0-18-625000;8 
0-0-18-628000;-2 
0-0-18-630000;3 
0-0-18-632000;-10 
0-0-18-634000;-5 
0-0-18-636000;-4 
0-0-18-638000;-4 
0-0-18-640000;8 
0-0-18-642000;-8 
0-0-18-644000;5 
0-0-18-646000;2 
0-0-18-648000;8 
0-0-18-650000;-9 
0-0-18-652000;5 
0-0-18-654000;-13 
0-0-18-656000;-10 
0-0-18-658000;-10 
0-0-18-660000;8 
0-0-18-663000;-3 
0-0-18-665000;13 
0-0-18-666000;-3 
0-0-18-668000;1 
0-0-18-670000;-4 
0-0-18-672000;-6 
0-0-18-674000;3 
0-0-18-676000;3 
0-0-18-678000;-16 
0-0-18-680000;7 
0-0-18-682000;-8 
0-0-18-684000;-1 
0-0-18-686000;-2 
0-0-18-688000;10 
0-0-18-690000;-12 
0-0-18-692000;-11 
0-0-18-694000;-12 
0-0-18-697000;-7 
0-0-18-699000;-16 
0-0-18-701000;11 
0-0-18-703000;-24 
0-0-18-705000;0 
0-0-18-707000;1 
0-0-18-708000;-3 
0-0-18-710000;-13 
0-0-18-712000;-12 
0-0-18-714000;-2 
0-0-18-716000;-9 
0-0-18-718000;-10 
0-0-18-720000;-2 
0-0-18-722000;-11 
0-0-18-724000;-2 
0-0-18-726000;4 
0-0-18-728000;-13 
0-0-18-731000;-15 
0-0-18-733000;-12 
0-0-18-735000;-26 
0-0-18-737000;-3 
0-0-18-739000;-16 
0-0-18-750000;-26 
0-0-18-752000;-3 
0-0-18-754000;-23 
0-0-18-756000;-31 
0-0-18-758000;-13 
0-0-18-760000;-20 
0-0-18-762000;-22 
0-0-18-764000;-20 
0-0-18-767000;-14 
0-0-18-769000;-24 
0-0-18-771000;-10 
0-0-18-773000;-32 
0-0-18-775000;-19 
0-0-18-777000;-18 
0-0-18-779000;-8 
0-0-18-781000;-21 
0-0-18-783000;-11 
0-0-18-785000;-8 
0-0-18-787000;-28 
0-0-18-789000;-2 
0-0-18-791000;-19 
0-0-18-792000;-3 
0-0-18-794000;-13 
0-0-18-796000;5 
0-0-18-798000;13 
0-0-18-803000;18 
0-0-18-805000;3 
0-0-18-807000;7 
0-0-18-809000;16 
0-0-18-811000;-9 
0-0-18-813000;7 
0-0-18-815000;0 
0-0-18-817000;14 
0-0-18-819000;-2 
0-0-18-821000;14 
0-0-18-823000;12 
0-0-18-825000;12 
0-0-18-827000;2 
0-0-18-829000;1 
0-0-18-831000;0 
0-0-18-833000;0 
0-0-18-835000;-7 
0-0-18-837000;-6 
0-0-18-839000;14 
0-0-18-841000;-16 
0-0-18-843000;24 
0-0-18-845000;6 
0-0-18-847000;-4 
0-0-18-849000;3 
0-0-18-851000;8 
0-0-18-853000;-18 
0-0-18-855000;6 
0-0-18-857000;-11 
0-0-18-859000;4 
0-0-18-861000;6 
0-0-18-863000;-8 
0-0-18-865000;9 
0-0-18-867000;-6 
0-0-18-870000;12 
0-0-18-872000;15 
0-0-18-874000;32 
0-0-18-875000;1 
0-0-18-877000;23 
0-0-18-879000;-15 
0-0-18-881000;4 
0-0-18-883000;-8 
0-0-18-885000;-25 
0-0-18-887000;-41 
0-0-18-889000;-70 
0-0-18-891000;-80 
0-0-18-893000;-116 
0-0-18-895000;-147 
0-0-18-897000;-155 
0-0-18-899000;-172 
0-0-18-901000;-169 
0-0-18-904000;-170 
0-0-18-906000;-175 
0-0-18-908000;-173 
0-0-18-910000;-148 
0-0-18-912000;-102 
0-0-18-914000;-78 
0-0-18-916000;-14 
0-0-18-917000;22 
0-0-18-919000;49 
0-0-18-921000;66 
0-0-18-923000;50 
0-0-18-925000;37 
0-0-18-927000;67 
0-0-18-929000;34 
0-0-18-931000;45 
0-0-18-933000;36 
0-0-18-935000;20 
0-0-18-937000;32 
0-0-18-940000;13 
0-0-18-942000;37 
0-0-18-944000;15 
0-0-18-946000;46 
0-0-18-948000;15 
0-0-18-950000;29 
0-0-18-952000;13 
0-0-18-961000;31 
0-0-18-963000;7 
0-0-18-965000;40 
0-0-18-967000;17 
0-0-18-969000;9 
0-0-18-971000;13 
0-0-18-974000;26 
0-0-18-976000;8 
0-0-18-978000;32 
0-0-18-980000;5 
0-0-18-982000;16 
0-0-18-984000;25 
0-0-18-986000;7 
0-0-18-988000;25 
0-0-18-990000;14 
0-0-18-992000;21 
0-0-18-994000;14 
0-0-18-996000;6 
0-0-18-998000;8 
0-0-18-999000;15 
0-0-19-001000;-7 
0-0-19-003000;21 
0-0-19-005000;0 
0-0-19-008000;9 
0-0-19-010000;-10 
0-0-19-012000;2 
0-0-19-014000;12 
0-0-19-016000;-6 
0-0-19-018000;10 
0-0-19-020000;4 
0-0-19-022000;15 
0-0-19-024000;-6 
0-0-19-026000;4 
0-0-19-028000;10 
0-0-19-030000;2 
0-0-19-032000;3 
0-0-19-034000;-13 
0-0-19-036000;7 
0-0-19-038000;-13 
0-0-19-040000;-10 
0-0-19-042000;11 
0-0-19-044000;-13 
0-0-19-046000;-3 
0-0-19-048000;-29 
0-0-19-050000;14 
0-0-19-052000;2 
0-0-19-054000;-22 
0-0-19-056000;-14 
0-0-19-058000;2 
0-0-19-060000;-7 
0-0-19-062000;-4 
0-0-19-064000;-10 
0-0-19-066000;-6 
0-0-19-068000;-30 
0-0-19-070000;-3 
0-0-19-072000;-22 
0-0-19-074000;-10 
0-0-19-077000;-35 
0-0-19-079000;-6 
0-0-19-081000;-14 
0-0-19-083000;-13 
0-0-19-084000;-11 
0-0-19-086000;-17 
0-0-19-088000;-19 
0-0-19-090000;-20 
0-0-19-092000;-35 
0-0-19-094000;-1 
0-0-19-096000;-26 
0-0-19-098000;-13 
0-0-19-100000;-26 
0-0-19-102000;-21 
0-0-19-104000;-17 
0-0-19-106000;-18 
0-0-19-108000;-17 
0-0-19-111000;-18 
0-0-19-113000;-24 
0-0-19-115000;-11 
0-0-19-117000;-8 
0-0-19-119000;-28 
0-0-19-121000;-12 
0-0-19-123000;-15 
0-0-19-124000;-16 
0-0-19-126000;-8 
0-0-19-128000;-22 
0-0-19-130000;-3 
0-0-19-132000;-20 
0-0-19-134000;-17 
0-0-19-136000;-26 
0-0-19-138000;0 
0-0-19-140000;-32 
0-0-19-142000;18 
0-0-19-144000;-12 
0-0-19-147000;2 
0-0-19-149000;-21 
0-0-19-151000;8 
0-0-19-153000;5 
0-0-19-155000;-4 
0-0-19-157000;-5 
0-0-19-159000;10 
0-0-19-161000;11 
0-0-19-174000;0 
0-0-19-176000;15 
0-0-19-178000;-19 
0-0-19-181000;18 
0-0-19-183000;5 
0-0-19-185000;15 
0-0-19-187000;-17 
0-0-19-189000;6 
0-0-19-191000;17 
0-0-19-193000;-2 
0-0-19-195000;27 
0-0-19-197000;-4 
0-0-19-199000;9 
0-0-19-201000;-4 
0-0-19-203000;15 
0-0-19-205000;4 
0-0-19-207000;8 
0-0-19-208000;9 
0-0-19-210000;-7 
0-0-19-212000;3 
0-0-19-215000;1 
0-0-19-217000;7 
0-0-19-219000;-5 
0-0-19-221000;3 
0-0-19-223000;12 
0-0-19-225000;-19 
0-0-19-229000;-9 
0-0-19-231000;11 
0-0-19-233000;-29 
0-0-19-235000;9 
0-0-19-237000;-4 
0-0-19-239000;-8 
0-0-19-241000;5 
0-0-19-243000;0 
0-0-19-245000;7 
0-0-19-247000;3 
0-0-19-249000;-1 
0-0-19-251000;-8 
0-0-19-253000;-11 
0-0-19-255000;-13 
0-0-19-257000;8 
0-0-19-259000;-16 
0-0-19-261000;22 
0-0-19-263000;-8 
0-0-19-265000;0 
0-0-19-267000;0 
0-0-19-269000;-2 
0-0-19-271000;-5 
0-0-19-273000;-2 
0-0-19-275000;-9 
0-0-19-277000;6 
0-0-19-279000;-27 
0-0-19-281000;15 
0-0-19-284000;-10 
0-0-19-286000;14 
0-0-19-288000;-14 
0-0-19-290000;9 
0-0-19-291000;6 
0-0-19-293000;-7 
0-0-19-295000;3 
0-0-19-297000;-3 
0-0-19-299000;-16 
0-0-19-301000;10 
0-0-19-303000;-5 
0-0-19-305000;4 
0-0-19-307000;-10 
0-0-19-309000;-6 
0-0-19-311000;1 
0-0-19-313000;5 
0-0-19-315000;-10 
0-0-19-318000;-13 
0-0-19-320000;0 
0-0-19-322000;9 
0-0-19-324000;-2 
0-0-19-326000;-20 
0-0-19-328000;10 
0-0-19-330000;-13 
0-0-19-332000;8 
0-0-19-333000;-8 
0-0-19-335000;-10 
0-0-19-337000;17 
0-0-19-339000;-9 
0-0-19-341000;12 
0-0-19-343000;-6 
0-0-19-345000;-8 
0-0-19-347000;5 
0-0-19-349000;-3 
0-0-19-351000;5 
0-0-19-354000;-5 
0-0-19-356000;3 
0-0-19-358000;4 
0-0-19-360000;4 
0-0-19-362000;0 
0-0-19-364000;-8 
0-0-19-366000;1 
0-0-19-368000;10 
0-0-19-370000;-8 
0-0-19-372000;15 
0-0-19-374000;2 
0-0-19-375000;-2 
0-0-19-388000;-13 
0-0-19-390000;0 
0-0-19-392000;-1 
0-0-19-394000;-6 
0-0-19-396000;-8 
0-0-19-398000;-12 
0-0-19-400000;7 
0-0-19-402000;-22 
0-0-19-404000;1 
0-0-19-406000;4 
0-0-19-408000;-14 
0-0-19-410000;-11 
0-0-19-412000;3 
0-0-19-414000;-20 
0-0-19-416000;4 
0-0-19-417000;-19 
0-0-19-419000;-16 
0-0-19-422000;-10 
0-0-19-424000;-18 
0-0-19-426000;-4 
0-0-19-428000;-26 
0-0-19-430000;-4 
0-0-19-432000;-14 
0-0-19-434000;-23 
0-0-19-436000;-6 
0-0-19-438000;-28 
0-0-19-440000;-4 
0-0-19-442000;-9 
0-0-19-444000;-20 
0-0-19-446000;-16 
0-0-19-448000;-47 
0-0-19-450000;-31 
0-0-19-452000;-33 
0-0-19-454000;-10 
0-0-19-457000;-42 
0-0-19-458000;-7 
0-0-19-460000;-25 
0-0-19-462000;-14 
0-0-19-464000;-20 
0-0-19-466000;-8 
0-0-19-468000;-12 
0-0-19-470000;-5 
0-0-19-472000;-22 
0-0-19-474000;-4 
0-0-19-476000;0 
0-0-19-478000;-4 
0-0-19-480000;9 
0-0-19-482000;9 
0-0-19-484000;5 
0-0-19-486000;-5 
0-0-19-488000;25 
0-0-19-491000;0 
0-0-19-493000;19 
0-0-19-495000;-22 
0-0-19-497000;16 
0-0-19-499000;2 
0-0-19-500000;15 
0-0-19-502000;11 
0-0-19-504000;4 
0-0-19-506000;24 
0-0-19-508000;-2 
0-0-19-510000;10 
0-0-19-512000;-5 
0-0-19-514000;11 
0-0-19-516000;2 
0-0-19-518000;2 
0-0-19-520000;10 
0-0-19-522000;21 
0-0-19-525000;6 
0-0-19-527000;15 
0-0-19-529000;-5 
0-0-19-531000;12 
0-0-19-533000;-11 
0-0-19-535000;-4 
0-0-19-537000;10 
0-0-19-539000;7 
0-0-19-541000;-9 
0-0-19-542000;20 
0-0-19-544000;15 
0-0-19-546000;-3 
0-0-19-548000;6 
0-0-19-550000;-2 
0-0-19-552000;18 
0-0-19-554000;-1 
0-0-19-556000;4 
0-0-19-558000;34 
0-0-19-561000;14 
0-0-19-563000;8 
0-0-19-565000;3 
0-0-19-567000;-31 
0-0-19-569000;-21 
0-0-19-571000;-52 
0-0-19-573000;-82 
0-0-19-575000;-107 
0-0-19-577000;-119 
0-0-19-579000;-163 
0-0-19-581000;-154 
0-0-19-583000;-185 
0-0-19-584000;-191 
0-0-19-586000;-187 
0-0-19-599000;4 
0-0-19-601000;14 
0-0-19-603000;47 
0-0-19-605000;55 
0-0-19-607000;34 
0-0-19-609000;65 
0-0-19-611000;37 
0-0-19-613000;30 
0-0-19-615000;33 
0-0-19-617000;3 
0-0-19-619000;28 
0-0-19-621000;38 
0-0-19-623000;25 
0-0-19-624000;21 
0-0-19-626000;41 
0-0-19-629000;26 
0-0-19-631000;42 
0-0-19-633000;27 
0-0-19-635000;17 
0-0-19-637000;36 
0-0-19-639000;21 
0-0-19-641000;40 
0-0-19-643000;15 
0-0-19-645000;23 
0-0-19-647000;31 
0-0-19-649000;17 
0-0-19-651000;32 
0-0-19-655000;27 
0-0-19-657000;16 
0-0-19-659000;18 
0-0-19-661000;36 
0-0-19-664000;28 
0-0-19-666000;24 
0-0-19-667000;33 
0-0-19-669000;15 
0-0-19-671000;-2 
0-0-19-673000;30 
0-0-19-675000;10 
0-0-19-677000;0 
0-0-19-679000;17 
0-0-19-681000;16 
0-0-19-683000;20 
0-0-19-685000;9 
0-0-19-687000;17 
0-0-19-689000;1 
0-0-19-691000;10 
0-0-19-693000;9 
0-0-19-695000;6 
0-0-19-698000;1 
0-0-19-700000;9 
0-0-19-702000;13 
0-0-19-704000;-2 
0-0-19-706000;0 
0-0-19-708000;16 
0-0-19-709000;-9 
0-0-19-711000;21 
0-0-19-713000;8 
0-0-19-715000;-12 
0-0-19-717000;-8 
0-0-19-719000;3 
0-0-19-721000;10 
0-0-19-723000;6 
0-0-19-725000;-9 
0-0-19-727000;0 
0-0-19-729000;11 
0-0-19-731000;-14 
0-0-19-734000;4 
0-0-19-736000;-14 
0-0-19-738000;-24 
0-0-19-740000;1 
0-0-19-742000;-16 
0-0-19-744000;2 
0-0-19-746000;2 
0-0-19-748000;-26 
0-0-19-749000;-15 
0-0-19-751000;-14 
0-0-19-753000;-25 
0-0-19-755000;-32 
0-0-19-757000;-5 
0-0-19-759000;-25 
0-0-19-761000;-3 
0-0-19-763000;-3 
0-0-19-765000;-6 
0-0-19-768000;-16 
0-0-19-770000;-20 
0-0-19-772000;-5 
0-0-19-774000;-28 
0-0-19-776000;-12 
0-0-19-778000;-12 
0-0-19-780000;-29 
0-0-19-782000;-21 
0-0-19-784000;-23 
0-0-19-786000;-28 
0-0-19-788000;-9 
0-0-19-790000;-24 
0-0-19-791000;-19 
0-0-19-793000;-28 
0-0-19-795000;-36 
0-0-19-797000;-15 
0-0-19-799000;-12 
0-0-19-810000;-1 
0-0-19-812000;-21 
0-0-19-814000;-15 
0-0-19-816000;-20 
0-0-19-818000;-17 
0-0-19-820000;-5 
0-0-19-822000;-23 
0-0-19-824000;-16 
0-0-19-826000;2 
0-0-19-828000;-11 
0-0-19-830000;-15 
0-0-19-832000;-3 
0-0-19-833000;-23 
0-0-19-836000;5 
0-0-19-838000;-2 
0-0-19-840000;-9 
0-0-19-842000;19 
0-0-19-844000;-9 
0-0-19-846000;17 
0-0-19-848000;-26 
0-0-19-850000;17 
0-0-19-852000;12 
0-0-19-854000;-8 
0-0-19-856000;4 
0-0-19-858000;11 
0-0-19-860000;-12 
0-0-19-862000;19 
0-0-19-864000;13 
0-0-19-866000;1 
0-0-19-868000;35 
0-0-19-871000;10 
0-0-19-873000;-4 
0-0-19-874000;13 
0-0-19-876000;6 
0-0-19-878000;-12 
0-0-19-880000;20 
0-0-19-882000;10 
0-0-19-884000;3 
0-0-19-886000;-3 
0-0-19-888000;7 
0-0-19-890000;7 
0-0-19-892000;3 
0-0-19-894000;-15 
0-0-19-896000;6 
0-0-19-898000;-5 
0-0-19-900000;-1 
0-0-19-902000;10 
0-0-19-905000;-8 
0-0-19-907000;18 
0-0-19-909000;-11 
0-0-19-911000;10 
0-0-19-913000;-9 
0-0-19-915000;4 
0-0-19-916000;-14 
0-0-19-918000;13 
0-0-19-920000;-16 
0-0-19-922000;11 
0-0-19-924000;-24 
0-0-19-926000;23 
0-0-19-928000;-14 
0-0-19-930000;6 
0-0-19-932000;-22 
0-0-19-934000;8 
0-0-19-936000;-12 
0-0-19-938000;9 
0-0-19-941000;-10 
0-0-19-943000;9 
0-0-19-945000;-17 
0-0-19-947000;6 
0-0-19-949000;-6 
0-0-19-951000;3 
0-0-19-953000;-3 
0-0-19-955000;3 
0-0-19-957000;-7 
0-0-19-958000;2 
0-0-19-960000;0 
0-0-19-962000;0 
0-0-19-964000;11 
0-0-19-966000;-8 
0-0-19-968000;-4 
0-0-19-970000;-11 
0-0-19-972000;-13 
0-0-19-975000;0 
0-0-19-977000;6 
0-0-19-979000;-25 
0-0-19-981000;11 
0-0-19-983000;0 
0-0-19-985000;-4 
0-0-19-987000;3 
0-0-19-989000;-6 
0-0-19-991000;-14 
0-0-19-993000;6 
0-0-19-995000;-10 
0-0-19-997000;8 
0-0-19-999000;14 
0-0-20-000000;-11 
0-0-20-002000;1 
0-0-20-004000;8 
0-0-20-006000;-2 
0-0-20-009000;4 
0-0-20-021000;1 
0-0-20-023000;-5 
0-0-20-025000;0 
0-0-20-027000;7 
0-0-20-029000;-13 
0-0-20-031000;-9 
0-0-20-033000;11 
0-0-20-035000;-14 
0-0-20-037000;4 
0-0-20-039000;1 
0-0-20-041000;-10 
0-0-20-043000;2 
0-0-20-045000;13 
0-0-20-047000;-6 
0-0-20-049000;6 
0-0-20-051000;-16 
0-0-20-053000;-10 
0-0-20-055000;-11 
0-0-20-057000;2 
0-0-20-059000;5 
0-0-20-061000;2 
0-0-20-063000;-5 
0-0-20-065000;15 
0-0-20-067000;-17 
0-0-20-069000;9 
0-0-20-071000;-4 
0-0-20-073000;4 
0-0-20-075000;-19 
0-0-20-080000;-4 
0-0-20-082000;-2 
0-0-20-083000;-1 
0-0-20-085000;-10 
0-0-20-087000;11 
0-0-20-089000;0 
0-0-20-091000;2 
0-0-20-093000;13 
0-0-20-095000;-11 
0-0-20-097000;-17 
0-0-20-099000;14 
0-0-20-101000;-22 
0-0-20-103000;5 
0-0-20-105000;1 
0-0-20-107000;-9 
0-0-20-109000;-21 
0-0-20-112000;1 
0-0-20-114000;-28 
0-0-20-116000;-4 
0-0-20-118000;-23 
0-0-20-120000;-12 
0-0-20-122000;-8 
0-0-20-124000;-8 
0-0-20-125000;-18 
0-0-20-127000;-6 
0-0-20-129000;-30 
0-0-20-131000;-20 
0-0-20-133000;-13 
0-0-20-135000;-25 
0-0-20-137000;-21 
0-0-20-139000;-17 
0-0-20-141000;-17 
0-0-20-143000;-15 
0-0-20-145000;-4 
0-0-20-148000;-38 
0-0-20-150000;0 
0-0-20-152000;-25 
0-0-20-154000;-14 
0-0-20-156000;-14 
0-0-20-158000;-14 
0-0-20-160000;-7 
0-0-20-162000;-16 
0-0-20-164000;-1 
0-0-20-166000;-15 
0-0-20-167000;19 
0-0-20-169000;2 
0-0-20-171000;-4 
0-0-20-173000;22 
0-0-20-175000;-5 
0-0-20-177000;-8 
0-0-20-179000;9 
0-0-20-182000;18 
0-0-20-184000;-2 
0-0-20-186000;-7 
0-0-20-188000;24 
0-0-20-190000;-3 
0-0-20-192000;15 
0-0-20-194000;-16 
0-0-20-196000;11 
0-0-20-198000;16 
0-0-20-200000;3 
0-0-20-202000;-4 
0-0-20-204000;19 
0-0-20-206000;-12 
0-0-20-208000;11 
0-0-20-209000;14 
0-0-20-211000;-13 
0-0-20-213000;2 
0-0-20-216000;3 
0-0-20-218000;5 
0-0-20-220000;10 
0-0-20-222000;-15 
0-0-20-234000;4 
0-0-20-236000;-2 
0-0-20-238000;9 
0-0-20-240000;-15 
0-0-20-242000;25 
0-0-20-244000;7 
0-0-20-246000;22 
0-0-20-248000;21 
0-0-20-250000;-2 
0-0-20-252000;26 
0-0-20-254000;-15 
0-0-20-256000;8 
0-0-20-258000;-41 
0-0-20-260000;-28 
0-0-20-262000;-59 
0-0-20-264000;-87 
0-0-20-266000;-102 
0-0-20-268000;-136 
0-0-20-270000;-163 
0-0-20-272000;-201 
0-0-20-274000;-183 
0-0-20-276000;-201 
0-0-20-278000;-161 
0-0-20-280000;-170 
0-0-20-282000;-139 
0-0-20-285000;-107 
0-0-20-287000;-99 
0-0-20-289000;-13 
0-0-20-291000;10 
0-0-20-292000;19 
0-0-20-294000;49 
0-0-20-296000;42 
0-0-20-298000;60 
0-0-20-300000;48 
0-0-20-302000;31 
0-0-20-304000;45 
0-0-20-306000;44 
0-0-20-308000;16 
0-0-20-310000;29 
0-0-20-312000;23 
0-0-20-314000;28 
0-0-20-316000;18 
0-0-20-319000;24 
0-0-20-321000;42 
0-0-20-323000;27 
0-0-20-325000;25 
0-0-20-327000;39 
0-0-20-329000;26 
0-0-20-331000;32 
0-0-20-333000;34 
0-0-20-334000;33 
0-0-20-336000;14 
0-0-20-338000;23 
0-0-20-340000;35 
0-0-20-342000;17 
0-0-20-344000;11 
0-0-20-346000;32 
0-0-20-348000;15 
0-0-20-350000;31 
0-0-20-352000;15 
0-0-20-355000;7 
0-0-20-357000;26 
0-0-20-359000;8 
0-0-20-361000;25 
0-0-20-363000;16 
0-0-20-365000;20 
0-0-20-367000;19 
0-0-20-369000;23 
0-0-20-371000;-7 
0-0-20-373000;28 
0-0-20-374000;-1 
0-0-20-376000;18 
0-0-20-378000;-9 
0-0-20-380000;27 
0-0-20-382000;25 
0-0-20-384000;13 
0-0-20-386000;7 
0-0-20-389000;8 
0-0-20-391000;14 
0-0-20-393000;2 
0-0-20-395000;14 
0-0-20-397000;-14 
0-0-20-399000;-2 
0-0-20-401000;-8 
0-0-20-403000;11 
0-0-20-405000;-2 
0-0-20-407000;15 
0-0-20-409000;-8 
0-0-20-411000;11 
0-0-20-413000;15 
0-0-20-415000;-7 
0-0-20-416000;-19 
0-0-20-418000;2 
0-0-20-420000;-15 
0-0-20-423000;3 
0-0-20-425000;-10 
0-0-20-427000;-11 
0-0-20-429000;2 
0-0-20-431000;-14 
0-0-20-433000;-14 
0-0-20-443000;6 
0-0-20-445000;-13 
0-0-20-447000;-25 
0-0-20-449000;9 
0-0-20-451000;-23 
0-0-20-453000;-4 
0-0-20-455000;-38 
0-0-20-458000;4 
0-0-20-459000;-14 
0-0-20-461000;-18 
0-0-20-463000;-23 
0-0-20-465000;-13 
0-0-20-467000;-13 
0-0-20-469000;-4 
0-0-20-471000;-18 
0-0-20-473000;-20 
0-0-20-475000;-22 
0-0-20-477000;-25 
0-0-20-479000;-15 
0-0-20-481000;-9 
0-0-20-483000;-11 
0-0-20-485000;-16 
0-0-20-487000;-5 
0-0-20-489000;-20 
0-0-20-492000;-22 
0-0-20-494000;-36 
0-0-20-496000;3 
0-0-20-498000;-31 
0-0-20-499000;-19 
0-0-20-503000;-12 
0-0-20-505000;-10 
0-0-20-507000;-19 
0-0-20-509000;-3 
0-0-20-511000;2 
0-0-20-513000;-6 
0-0-20-515000;-4 
0-0-20-517000;4 
0-0-20-519000;-9 
0-0-20-521000;0 
0-0-20-523000;-4 
0-0-20-525000;6 
0-0-20-528000;1 
0-0-20-530000;4 
0-0-20-532000;18 
0-0-20-534000;-15 
0-0-20-536000;17 
0-0-20-538000;-1 
0-0-20-540000;-4 
0-0-20-541000;16 
0-0-20-543000;-1 
0-0-20-545000;17 
0-0-20-547000;4 
0-0-20-549000;-3 
0-0-20-551000;11 
0-0-20-553000;9 
0-0-20-555000;-7 
0-0-20-557000;16 
0-0-20-559000;14 
0-0-20-562000;4 
0-0-20-564000;22 
0-0-20-566000;-1 
0-0-20-568000;1 
0-0-20-570000;18 
0-0-20-572000;-4 
0-0-20-574000;5 
0-0-20-576000;1 
0-0-20-578000;11 
0-0-20-580000;31 
0-0-20-582000;3 
0-0-20-583000;-1 
0-0-20-585000;9 
0-0-20-587000;-12 
0-0-20-589000;-10 
0-0-20-591000;-1 
0-0-20-593000;-6 
0-0-20-596000;-15 
0-0-20-598000;-11 
0-0-20-600000;-5 
0-0-20-602000;17 
0-0-20-604000;10 
0-0-20-606000;-1 
0-0-20-608000;6 
0-0-20-610000;4 
0-0-20-612000;-14 
0-0-20-614000;-18 
0-0-20-616000;8 
0-0-20-618000;4 
0-0-20-620000;-20 
0-0-20-622000;-13 
0-0-20-624000;-3 
0-0-20-625000;8 
0-0-20-627000;-17 
0-0-20-630000;3 
0-0-20-632000;3 
0-0-20-634000;-5 
0-0-20-636000;-11 
0-0-20-638000;4 
0-0-20-640000;-13 
0-0-20-642000;4 
0-0-20-644000;7 
0-0-20-656000;1 
0-0-20-658000;-3 
0-0-20-660000;24 
0-0-20-662000;30 
0-0-20-665000;-4 
0-0-20-666000;3 
0-0-20-668000;15 
0-0-20-670000;-20 
0-0-20-672000;28 
0-0-20-674000;-2 
0-0-20-676000;10 
0-0-20-678000;0 
0-0-20-680000;7 
0-0-20-682000;13 
0-0-20-684000;0 
0-0-20-686000;9 
0-0-20-688000;-10 
0-0-20-690000;19 
0-0-20-692000;-20 
0-0-20-694000;0 
0-0-20-696000;-16 
0-0-20-699000;-1 
0-0-20-701000;13 
0-0-20-703000;3 
0-0-20-705000;-1 
0-0-20-707000;20 
0-0-20-708000;-6 
0-0-20-710000;9 
0-0-20-712000;10 
0-0-20-714000;10 
0-0-20-716000;-24 
0-0-20-718000;5 
0-0-20-720000;3 
0-0-20-722000;-3 
0-0-20-724000;-6 
0-0-20-726000;12 
0-0-20-728000;-5 
0-0-20-730000;-19 
0-0-20-732000;-6 
0-0-20-735000;-7 
0-0-20-737000;-4 
0-0-20-739000;-10 
0-0-20-741000;-1 
0-0-20-743000;23 
0-0-20-745000;26 
0-0-20-747000;-6 
0-0-20-749000;1 
0-0-20-750000;10 
0-0-20-752000;-1 
0-0-20-754000;-22 
0-0-20-756000;5 
0-0-20-758000;3 
0-0-20-760000;0 
0-0-20-762000;-23 
0-0-20-764000;21 
0-0-20-766000;16 
0-0-20-769000;11 
0-0-20-771000;-27 
0-0-20-773000;-2 
0-0-20-775000;-10 
0-0-20-777000;2 
0-0-20-779000;-7 
0-0-20-781000;5 
0-0-20-783000;18 
0-0-20-785000;-6 
0-0-20-787000;-3 
0-0-20-789000;11 
0-0-20-791000;21 
0-0-20-792000;-18 
0-0-20-794000;-17 
0-0-20-796000;-13 
0-0-20-798000;0 
0-0-20-800000;-30 
0-0-20-803000;-5 
0-0-20-805000;-1 
0-0-20-807000;-1 
0-0-20-809000;-24 
0-0-20-811000;-5 
0-0-20-813000;1 
0-0-20-815000;3 
0-0-20-817000;-32 
0-0-20-819000;-36 
0-0-20-821000;2 
0-0-20-823000;-1 
0-0-20-825000;-22 
0-0-20-827000;-24 
0-0-20-829000;-29 
0-0-20-831000;-9 
0-0-20-833000;-11 
0-0-20-834000;-21 
0-0-20-837000;-23 
0-0-20-839000;-26 
0-0-20-841000;-26 
0-0-20-843000;-10 
0-0-20-845000;-18 
0-0-20-847000;-16 
0-0-20-849000;-16 
0-0-20-851000;-13 
0-0-20-853000;-9 
0-0-20-855000;-39 
0-0-20-867000;2 
0-0-20-869000;-8 
0-0-20-872000;-16 
0-0-20-874000;-13 
0-0-20-875000;3 
0-0-20-877000;-1 
0-0-20-879000;-9 
0-0-20-881000;-1 
0-0-20-883000;7 
0-0-20-885000;-14 
0-0-20-887000;19 
0-0-20-889000;17 
0-0-20-891000;6 
0-0-20-893000;2 
0-0-20-895000;36 
0-0-20-897000;2 
0-0-20-899000;23 
0-0-20-901000;33 
0-0-20-903000;19 
0-0-20-906000;22 
0-0-20-908000;21 
0-0-20-910000;4 
0-0-20-912000;-3 
0-0-20-914000;24 
0-0-20-916000;-2 
0-0-20-917000;-12 
0-0-20-919000;7 
0-0-20-921000;13 
0-0-20-923000;-8 
0-0-20-925000;2 
0-0-20-929000;9 
0-0-20-931000;-14 
0-0-20-933000;0 
0-0-20-935000;-2 
0-0-20-937000;6 
0-0-20-939000;-7 
0-0-20-942000;12 
0-0-20-944000;5 
0-0-20-946000;24 
0-0-20-948000;8 
0-0-20-950000;9 
0-0-20-952000;25 
0-0-20-954000;-12 
0-0-20-956000;-52 
0-0-20-958000;-71 
0-0-20-959000;-65 
0-0-20-961000;-107 
0-0-20-963000;-110 
0-0-20-965000;-134 
0-0-20-967000;-162 
0-0-20-969000;-169 
0-0-20-971000;-168 
0-0-20-973000;-176 
0-0-20-976000;-188 
0-0-20-978000;-177 
0-0-20-980000;-117 
0-0-20-982000;-104 
0-0-20-984000;-52 
0-0-20-986000;-11 
0-0-20-988000;42 
0-0-20-990000;47 
0-0-20-992000;67 
0-0-20-994000;63 
0-0-20-996000;53 
0-0-20-998000;37 
0-0-20-999000;53 
0-0-21-001000;41 
0-0-21-003000;21 
0-0-21-005000;57 
0-0-21-007000;34 
0-0-21-010000;12 
0-0-21-012000;23 
0-0-21-014000;28 
0-0-21-016000;-18 
0-0-21-018000;27 
0-0-21-020000;27 
0-0-21-022000;19 
0-0-21-024000;10 
0-0-21-026000;55 
0-0-21-028000;39 
0-0-21-030000;29 
0-0-21-032000;13 
0-0-21-034000;43 
0-0-21-036000;26 
0-0-21-038000;2 
0-0-21-040000;22 
0-0-21-041000;24 
0-0-21-044000;25 
0-0-21-046000;15 
0-0-21-048000;27 
0-0-21-050000;22 
0-0-21-052000;0 
0-0-21-054000;-3 
0-0-21-056000;15 
0-0-21-058000;10 
0-0-21-060000;9 
0-0-21-062000;-16 
0-0-21-064000;13 
0-0-21-066000;15 
0-0-21-068000;10 
0-0-21-081000;23 
0-0-21-083000;1 
0-0-21-084000;8 
0-0-21-086000;17 
0-0-21-088000;18 
0-0-21-090000;14 
0-0-21-092000;-15 
0-0-21-094000;-14 
0-0-21-096000;-1 
0-0-21-098000;-10 
0-0-21-100000;-4 
0-0-21-102000;-13 
0-0-21-104000;-4 
0-0-21-106000;12 
0-0-21-108000;2 
0-0-21-110000;-2 
0-0-21-112000;-13 
0-0-21-115000;-15 
0-0-21-117000;-21 
0-0-21-119000;-2 
0-0-21-121000;10 
0-0-21-123000;-2 
0-0-21-124000;-12 
0-0-21-126000;-8 
0-0-21-128000;-3 
0-0-21-130000;-22 
0-0-21-132000;-37 
0-0-21-134000;-36 
0-0-21-136000;-10 
0-0-21-138000;-4 
0-0-21-140000;-22 
0-0-21-142000;-15 
0-0-21-144000;6 
0-0-21-146000;14 
0-0-21-149000;1 
0-0-21-151000;-22 
0-0-21-153000;-4 
0-0-21-155000;-5 
0-0-21-157000;-13 
0-0-21-159000;-18 
0-0-21-161000;-6 
0-0-21-163000;-19 
0-0-21-165000;-8 
0-0-21-166000;-19 
0-0-21-168000;-39 
0-0-21-170000;-41 
0-0-21-172000;-40 
0-0-21-174000;-43 
0-0-21-176000;-24 
0-0-21-178000;-15 
0-0-21-180000;-19 
0-0-21-183000;-19 
0-0-21-185000;-18 
0-0-21-187000;-17 
0-0-21-189000;-14 
0-0-21-191000;-6 
0-0-21-193000;-29 
0-0-21-195000;-24 
0-0-21-197000;-32 
0-0-21-199000;-12 
0-0-21-201000;-10 
0-0-21-203000;-10 
0-0-21-205000;-14 
0-0-21-207000;-8 
0-0-21-208000;9 
0-0-21-210000;3 
0-0-21-212000;6 
0-0-21-214000;-12 
0-0-21-217000;-26 
0-0-21-219000;-35 
0-0-21-221000;-23 
0-0-21-223000;2 
0-0-21-225000;11 
0-0-21-227000;6 
0-0-21-229000;13 
0-0-21-231000;15 
0-0-21-233000;5 
0-0-21-235000;13 
0-0-21-237000;20 
0-0-21-239000;4 
0-0-21-241000;22 
0-0-21-243000;0 
0-0-21-245000;1 
0-0-21-247000;15 
0-0-21-249000;26 
0-0-21-251000;11 
0-0-21-253000;10 
0-0-21-255000;-10 
0-0-21-257000;8 
0-0-21-259000;-3 
0-0-21-261000;5 
0-0-21-263000;-2 
0-0-21-265000;-13 
0-0-21-267000;9 
0-0-21-269000;3 
0-0-21-271000;1 
0-0-21-273000;-6 
0-0-21-275000;-9 
0-0-21-277000;-7 
0-0-21-279000;9 
0-0-21-290000;3 
0-0-21-291000;14 
0-0-21-293000;-7 
0-0-21-295000;17 
0-0-21-297000;21 
0-0-21-299000;14 
0-0-21-301000;19 
0-0-21-303000;7 
0-0-21-305000;12 
0-0-21-307000;-5 
0-0-21-309000;6 
0-0-21-311000;16 
0-0-21-313000;11 
0-0-21-315000;-6 
0-0-21-317000;-21 
0-0-21-319000;-29 
0-0-21-322000;-32 
0-0-21-324000;-45 
0-0-21-326000;-9 
0-0-21-328000;8 
0-0-21-330000;15 
0-0-21-332000;-11 
0-0-21-333000;6 
0-0-21-335000;-6 
0-0-21-337000;12 
0-0-21-339000;-7 
0-0-21-341000;-13 
0-0-21-343000;-7 
0-0-21-345000;2 
0-0-21-347000;-1 
0-0-21-349000;-4 
0-0-21-353000;14 
0-0-21-356000;1 
0-0-21-358000;8 
0-0-21-360000;26 
0-0-21-362000;21 
0-0-21-364000;8 
0-0-21-366000;-9 
0-0-21-368000;16 
0-0-21-370000;-7 
0-0-21-372000;6 
0-0-21-374000;-11 
0-0-21-375000;-2 
0-0-21-377000;-18 
0-0-21-379000;-14 
0-0-21-381000;-24 
0-0-21-383000;0 
0-0-21-385000;-1 
0-0-21-387000;-18 
0-0-21-390000;8 
0-0-21-392000;16 
0-0-21-394000;2 
0-0-21-396000;-2 
0-0-21-398000;4 
0-0-21-400000;6 
0-0-21-402000;8 
0-0-21-404000;-7 
0-0-21-406000;-1 
0-0-21-408000;-7 
0-0-21-410000;5 
0-0-21-412000;7 
0-0-21-414000;10 
0-0-21-416000;19 
0-0-21-417000;-1 
0-0-21-419000;-13 
0-0-21-421000;3 
0-0-21-424000;-10 
0-0-21-426000;15 
0-0-21-428000;-1 
0-0-21-430000;-6 
0-0-21-432000;2 
0-0-21-434000;15 
0-0-21-436000;13 
0-0-21-438000;-8 
0-0-21-440000;-7 
0-0-21-442000;-10 
0-0-21-444000;5 
0-0-21-446000;0 
0-0-21-448000;-12 
0-0-21-450000;-17 
0-0-21-452000;-31 
0-0-21-454000;-38 
0-0-21-456000;-20 
0-0-21-458000;-22 
0-0-21-460000;-8 
0-0-21-462000;8 
0-0-21-464000;25 
0-0-21-466000;8 
0-0-21-468000;1 
0-0-21-470000;-11 
0-0-21-472000;15 
0-0-21-474000;-4 
0-0-21-476000;-8 
0-0-21-478000;3 
0-0-21-480000;-3 
0-0-21-482000;-10 
0-0-21-484000;-12 
0-0-21-486000;-7 
0-0-21-488000;-7 
0-0-21-490000;-21 
0-0-21-502000;-13 
0-0-21-504000;-8 
0-0-21-506000;0 
0-0-21-508000;-29 
0-0-21-510000;-14 
0-0-21-512000;-23 
0-0-21-514000;-20 
0-0-21-516000;-35 
0-0-21-518000;-41 
0-0-21-520000;-30 
0-0-21-522000;-25 
0-0-21-524000;-17 
0-0-21-526000;-26 
0-0-21-529000;-14 
0-0-21-531000;-15 
0-0-21-533000;1 
0-0-21-535000;-10 
0-0-21-537000;-24 
0-0-21-539000;-3 
0-0-21-541000;7 
0-0-21-542000;7 
0-0-21-544000;4 
0-0-21-546000;-9 
0-0-21-548000;27 
0-0-21-550000;17 
0-0-21-552000;11 
0-0-21-554000;-15 
0-0-21-556000;4 
0-0-21-558000;7 
0-0-21-560000;14 
0-0-21-563000;6 
0-0-21-565000;5 
0-0-21-567000;-12 
0-0-21-569000;-10 
0-0-21-571000;7 
0-0-21-573000;-13 
0-0-21-575000;-25 
0-0-21-577000;-16 
0-0-21-579000;2 
0-0-21-581000;13 
0-0-21-583000;18 
0-0-21-584000;-14 
0-0-21-586000;24 
0-0-21-588000;20 
0-0-21-590000;16 
0-0-21-592000;-14 
0-0-21-594000;-20 
0-0-21-597000;-10 
0-0-21-599000;8 
0-0-21-601000;6 
0-0-21-603000;13 
0-0-21-605000;2 
0-0-21-607000;23 
0-0-21-609000;12 
0-0-21-611000;-6 
0-0-21-613000;20 
0-0-21-615000;-3 
0-0-21-617000;-3 
0-0-21-619000;12 
0-0-21-621000;-7 
0-0-21-623000;14 
0-0-21-624000;25 
0-0-21-626000;-1 
0-0-21-628000;-2 
0-0-21-631000;2 
0-0-21-633000;-13 
0-0-21-635000;-42 
0-0-21-637000;-38 
0-0-21-639000;-92 
0-0-21-641000;-102 
0-0-21-643000;-100 
0-0-21-645000;-131 
0-0-21-647000;-156 
0-0-21-649000;-163 
0-0-21-651000;-187 
0-0-21-653000;-180 
0-0-21-655000;-167 
0-0-21-657000;-169 
0-0-21-659000;-155 
0-0-21-661000;-107 
0-0-21-663000;-74 
0-0-21-666000;-7 
0-0-21-667000;21 
0-0-21-669000;45 
0-0-21-671000;63 
0-0-21-673000;50 
0-0-21-675000;51 
0-0-21-677000;45 
0-0-21-679000;24 
0-0-21-681000;32 
0-0-21-683000;21 
0-0-21-685000;0 
0-0-21-687000;29 
0-0-21-689000;10 
0-0-21-691000;13 
0-0-21-693000;28 
0-0-21-695000;14 
0-0-21-697000;38 
0-0-21-699000;23 
0-0-21-702000;10 
0-0-21-713000;36 
0-0-21-715000;46 
0-0-21-717000;24 
0-0-21-719000;27 
0-0-21-721000;16 
0-0-21-723000;17 
0-0-21-725000;29 
0-0-21-727000;5 
0-0-21-729000;13 
0-0-21-731000;-2 
0-0-21-733000;6 
0-0-21-736000;16 
0-0-21-738000;-6 
0-0-21-740000;11 
0-0-21-742000;9 
0-0-21-744000;-18 
0-0-21-746000;12 
0-0-21-748000;10 
0-0-21-749000;-3 
0-0-21-751000;33 
0-0-21-753000;0 
0-0-21-755000;14 
0-0-21-757000;9 
0-0-21-759000;-14 
0-0-21-761000;-7 
0-0-21-763000;20 
0-0-21-765000;-4 
0-0-21-767000;14 
0-0-21-770000;4 
0-0-21-772000;-21 
0-0-21-774000;18 
0-0-21-776000;17 
0-0-21-780000;12 
0-0-21-782000;19 
0-0-21-784000;-3 
0-0-21-786000;2 
0-0-21-788000;-3 
0-0-21-790000;-2 
0-0-21-791000;-29 
0-0-21-793000;-30 
0-0-21-795000;-19 
0-0-21-797000;-2 
0-0-21-799000;-24 
0-0-21-801000;-20 
0-0-21-804000;-8 
0-0-21-806000;-7 
0-0-21-808000;-4 
0-0-21-810000;28 
0-0-21-812000;-3 
0-0-21-814000;17 
0-0-21-816000;-9 
0-0-21-818000;-2 
0-0-21-820000;-12 
0-0-21-822000;6 
0-0-21-824000;-16 
0-0-21-826000;6 
0-0-21-828000;-21 
0-0-21-830000;-29 
0-0-21-832000;-9 
0-0-21-833000;-38 
0-0-21-835000;-13 
0-0-21-838000;-26 
0-0-21-840000;-26 
0-0-21-842000;-21 
0-0-21-844000;-33 
0-0-21-846000;-17 
0-0-21-848000;-14 
0-0-21-850000;-24 
0-0-21-852000;-16 
0-0-21-854000;-45 
0-0-21-856000;-1 
0-0-21-858000;-36 
0-0-21-860000;-12 
0-0-21-862000;-45 
0-0-21-864000;-23 
0-0-21-866000;-10 
0-0-21-868000;-16 
0-0-21-870000;-32 
0-0-21-873000;-21 
0-0-21-874000;-39 
0-0-21-876000;-49 
0-0-21-878000;-33 
0-0-21-880000;-20 
0-0-21-882000;-15 
0-0-21-884000;-10 
0-0-21-886000;-22 
0-0-21-888000;9 
0-0-21-890000;-11 
0-0-21-892000;-14 
0-0-21-894000;28 
0-0-21-896000;-7 
0-0-21-898000;-2 
0-0-21-900000;-10 
0-0-21-902000;-9 
0-0-21-904000;-16 
0-0-21-906000;5 
0-0-21-909000;-13 
0-0-21-911000;-7 
0-0-21-913000;-19 
0-0-21-915000;15 
0-0-21-926000;6 
0-0-21-928000;24 
0-0-21-930000;4 
0-0-21-932000;24 
0-0-21-934000;6 
0-0-21-936000;21 
0-0-21-938000;-9 
0-0-21-940000;13 
0-0-21-943000;17 
0-0-21-945000;6 
0-0-21-947000;9 
0-0-21-949000;8 
0-0-21-951000;10 
0-0-21-953000;8 
0-0-21-955000;3 
0-0-21-957000;2 
0-0-21-958000;-4 
0-0-21-960000;3 
0-0-21-962000;-14 
0-0-21-964000;0 
0-0-21-966000;-8 
0-0-21-968000;-8 
0-0-21-970000;8 
0-0-21-972000;-8 
0-0-21-974000;15 
0-0-21-977000;4 
0-0-21-979000;-9 
0-0-21-981000;10 
0-0-21-983000;5 
0-0-21-985000;16 
0-0-21-987000;18 
0-0-21-989000;7 
0-0-21-991000;9 
0-0-21-993000;7 
0-0-21-995000;6 
0-0-21-997000;11 
0-0-21-999000;6 
0-0-22-000000;-19 
0-0-22-002000;-12 
0-0-22-004000;8 
0-0-22-006000;-11 
0-0-22-008000;-4 
0-0-22-011000;0 
0-0-22-013000;-21 
0-0-22-015000;2 
0-0-22-017000;16 
0-0-22-019000;6 
0-0-22-021000;-3 
0-0-22-023000;-5 
0-0-22-025000;16 
0-0-22-027000;-15 
0-0-22-029000;-4 
0-0-22-031000;1 
0-0-22-033000;-1 
0-0-22-035000;-18 
0-0-22-037000;-10 
0-0-22-039000;-9 
0-0-22-041000;-5 
0-0-22-042000;4 
0-0-22-045000;6 
0-0-22-047000;-11 
0-0-22-049000;3 
0-0-22-051000;5 
0-0-22-053000;-13 
0-0-22-055000;2 
0-0-22-057000;-25 
0-0-22-059000;-24 
0-0-22-061000;-6 
0-0-22-063000;-19 
0-0-22-065000;2 
0-0-22-067000;23 
0-0-22-069000;-8 
0-0-22-071000;32 
0-0-22-073000;14 
0-0-22-075000;1 
0-0-22-077000;0 
0-0-22-080000;4 
0-0-22-082000;11 
0-0-22-083000;21 
0-0-22-085000;-2 
0-0-22-087000;12 
0-0-22-089000;14 
0-0-22-091000;-5 
0-0-22-093000;-4 
0-0-22-095000;-8 
0-0-22-097000;-12 
0-0-22-099000;-16 
0-0-22-101000;1 
0-0-22-103000;-23 
0-0-22-105000;-7 
0-0-22-107000;-10 
0-0-22-109000;-7 
0-0-22-111000;-25 
0-0-22-113000;-24 
0-0-22-116000;-18 
0-0-22-118000;-8 
0-0-22-120000;-12 
0-0-22-122000;6 
0-0-22-124000;6 
0-0-22-125000;17 
0-0-22-135000;2 
0-0-22-137000;-18 
0-0-22-139000;4 
0-0-22-141000;7 
0-0-22-143000;8 
0-0-22-145000;15 
0-0-22-147000;-8 
0-0-22-150000;-11 
0-0-22-152000;2 
0-0-22-154000;-28 
0-0-22-156000;-6 
0-0-22-158000;-12 
0-0-22-160000;-24 
0-0-22-162000;-25 
0-0-22-164000;-8 
0-0-22-166000;-17 
0-0-22-167000;-1 
0-0-22-169000;-14 
0-0-22-171000;-17 
0-0-22-173000;-10 
0-0-22-175000;-29 
0-0-22-177000;-51 
0-0-22-179000;-46 
0-0-22-181000;-52 
0-0-22-184000;-43 
0-0-22-186000;-25 
0-0-22-188000;-21 
0-0-22-190000;-40 
0-0-22-192000;-15 
0-0-22-194000;12 
0-0-22-196000;2 
0-0-22-198000;-20 
0-0-22-200000;-11 
0-0-22-204000;-14 
0-0-22-206000;9 
0-0-22-208000;-13 
0-0-22-209000;-10 
0-0-22-211000;13 
0-0-22-213000;23 
0-0-22-215000;31 
0-0-22-218000;6 
0-0-22-220000;22 
0-0-22-222000;19 
0-0-22-224000;12 
0-0-22-226000;6 
0-0-22-228000;26 
0-0-22-230000;19 
0-0-22-232000;5 
0-0-22-234000;-10 
0-0-22-236000;6 
0-0-22-238000;12 
0-0-22-240000;-2 
0-0-22-242000;-5 
0-0-22-244000;22 
0-0-22-246000;15 
0-0-22-248000;18 
0-0-22-249000;19 
0-0-22-252000;4 
0-0-22-254000;-11 
0-0-22-256000;-3 
0-0-22-258000;-9 
0-0-22-260000;-5 
0-0-22-262000;-12 
0-0-22-264000;2 
0-0-22-266000;-14 
0-0-22-268000;13 
0-0-22-270000;0 
0-0-22-272000;12 
