timestamp;value
0-0-8-267000;27
0-0-8-269000;49
0-0-8-271000;76
0-0-8-273000;135
0-0-8-275000;146
0-0-8-277000;163
0-0-8-279000;91
0-0-8-281000;68
0-0-8-283000;24
0-0-8-286000;9
0-0-8-288000;28
0-0-8-290000;57
0-0-8-291000;81
0-0-8-293000;125
0-0-8-295000;145
0-0-8-297000;139
0-0-8-299000;84
0-0-8-301000;53
0-0-8-303000;35
0-0-8-305000;13
0-0-8-307000;16
0-0-8-309000;39
0-0-8-311000;93
0-0-8-313000;135
0-0-8-315000;155
0-0-8-317000;118
0-0-8-320000;93
0-0-8-322000;50
0-0-8-324000;41
0-0-8-326000;26
0-0-8-328000;25
0-0-8-330000;47
0-0-8-332000;110
0-0-8-333000;139
0-0-8-335000;160
0-0-8-337000;117
0-0-8-339000;90
0-0-8-341000;58
0-0-8-343000;25
0-0-8-345000;22
0-0-8-347000;49
0-0-8-349000;67
0-0-8-351000;91
0-0-8-354000;144
0-0-8-356000;124
0-0-8-358000;122
0-0-8-360000;100
0-0-8-362000;56
0-0-8-364000;11
0-0-8-366000;12
0-0-8-375000;125
0-0-8-377000;113
0-0-8-379000;100
0-0-8-381000;55
0-0-8-383000;7
0-0-8-385000;19
0-0-8-387000;25
0-0-8-390000;79
0-0-8-392000;95
0-0-8-394000;139
0-0-8-396000;145
0-0-8-398000;110
0-0-8-400000;82
0-0-8-402000;31
0-0-8-404000;-6
0-0-8-406000;15
0-0-8-408000;21
0-0-8-410000;48
0-0-8-412000;91
0-0-8-414000;121
0-0-8-416000;135
0-0-8-417000;113
0-0-8-419000;86
0-0-8-421000;26
0-0-8-424000;8
0-0-8-426000;5
0-0-8-428000;35
0-0-8-430000;49
0-0-8-432000;97
0-0-8-434000;132
0-0-8-436000;132
0-0-8-438000;123
0-0-8-440000;67
0-0-8-442000;37
0-0-8-444000;15
0-0-8-446000;29
0-0-8-448000;19
0-0-8-450000;64
0-0-8-452000;100
0-0-8-454000;164
0-0-8-456000;158
0-0-8-458000;125
0-0-8-460000;52
0-0-8-462000;28
0-0-8-464000;5
0-0-8-466000;17
0-0-8-468000;18
0-0-8-470000;59
0-0-8-472000;121
0-0-8-474000;150
0-0-8-476000;122
0-0-8-478000;116
0-0-8-480000;72
0-0-8-482000;31
0-0-8-484000;19
0-0-8-486000;1
0-0-8-488000;27
0-0-8-490000;71
0-0-8-493000;121
0-0-8-495000;124
0-0-8-497000;132
0-0-8-499000;122
0-0-8-500000;67
0-0-8-502000;23
0-0-8-504000;26
0-0-8-506000;7
0-0-8-508000;26
0-0-8-510000;68
0-0-8-512000;91
0-0-8-514000;143
0-0-8-516000;127
0-0-8-518000;103
0-0-8-520000;68
0-0-8-522000;24
0-0-8-524000;20
0-0-8-527000;13
0-0-8-529000;31
0-0-8-531000;60
0-0-8-533000;86
0-0-8-535000;131
0-0-8-537000;137
0-0-8-539000;122
0-0-8-541000;48
0-0-8-542000;26
0-0-8-544000;6
0-0-8-546000;0
0-0-8-548000;32
0-0-8-550000;84
0-0-8-552000;100
0-0-8-554000;125
0-0-8-556000;127
0-0-8-558000;115
0-0-8-561000;38
0-0-8-563000;16
0-0-8-565000;-1
0-0-8-567000;22
0-0-8-569000;29
0-0-8-571000;66
0-0-8-573000;97
0-0-8-575000;127
0-0-8-584000;26
0-0-8-588000;32
0-0-8-590000;73
0-0-8-592000;100
0-0-8-594000;129
0-0-8-597000;144
0-0-8-599000;75
0-0-8-601000;41
0-0-8-603000;20
0-0-8-605000;16
0-0-8-607000;-6
0-0-8-609000;31
0-0-8-611000;69
0-0-8-613000;106
0-0-8-615000;124
0-0-8-617000;129
0-0-8-619000;76
0-0-8-621000;40
0-0-8-623000;35
0-0-8-624000;-5
0-0-8-626000;-6
0-0-8-628000;28
0-0-8-631000;75
0-0-8-633000;101
0-0-8-635000;123
0-0-8-637000;121
0-0-8-639000;86
0-0-8-641000;46
0-0-8-643000;39
0-0-8-645000;2
0-0-8-647000;17
0-0-8-649000;32
0-0-8-651000;87
0-0-8-653000;143
0-0-8-655000;143
0-0-8-657000;137
0-0-8-659000;96
0-0-8-661000;68
0-0-8-663000;30
0-0-8-666000;14
0-0-8-667000;26
0-0-8-669000;65
0-0-8-671000;102
0-0-8-673000;139
0-0-8-675000;150
0-0-8-677000;131
0-0-8-679000;92
0-0-8-681000;92
0-0-8-683000;30
0-0-8-685000;7
0-0-8-687000;29
0-0-8-689000;63
0-0-8-691000;74
0-0-8-693000;129
0-0-8-695000;148
0-0-8-697000;122
0-0-8-700000;98
0-0-8-702000;50
0-0-8-704000;24
0-0-8-706000;20
0-0-8-708000;21
0-0-8-709000;45
0-0-8-711000;100
0-0-8-713000;124
0-0-8-715000;155
0-0-8-717000;128
0-0-8-719000;79
0-0-8-721000;37
0-0-8-723000;8
0-0-8-725000;11
0-0-8-727000;31
0-0-8-729000;37
0-0-8-731000;84
0-0-8-734000;131
0-0-8-736000;155
0-0-8-738000;118
0-0-8-740000;87
0-0-8-742000;49
0-0-8-744000;17
0-0-8-746000;25
0-0-8-748000;11
0-0-8-749000;29
0-0-8-751000;61
0-0-8-753000;101
0-0-8-755000;61
0-0-8-757000;37
0-0-8-759000;-28
0-0-8-761000;-75
0-0-8-763000;-138
0-0-8-765000;-180
0-0-8-768000;-174
0-0-8-770000;-120
0-0-8-772000;-80
0-0-8-774000;-24
0-0-8-776000;10
0-0-8-778000;25
0-0-8-780000;-1
0-0-8-782000;26
0-0-8-784000;44
0-0-8-786000;74
0-0-8-797000;195
0-0-8-799000;158
0-0-8-801000;98
0-0-8-804000;68
0-0-8-806000;58
0-0-8-808000;45
0-0-8-810000;85
0-0-8-812000;144
0-0-8-814000;150
0-0-8-816000;170
0-0-8-818000;158
0-0-8-820000;115
0-0-8-822000;71
0-0-8-824000;39
0-0-8-826000;39
0-0-8-828000;62
0-0-8-830000;80
0-0-8-832000;128
0-0-8-833000;158
0-0-8-835000;159
0-0-8-838000;155
0-0-8-840000;83
0-0-8-842000;45
0-0-8-844000;31
0-0-8-846000;51
0-0-8-848000;33
0-0-8-850000;91
0-0-8-852000;116
0-0-8-854000;150
0-0-8-856000;141
0-0-8-858000;130
0-0-8-860000;65
0-0-8-862000;52
0-0-8-864000;28
0-0-8-866000;36
0-0-8-868000;32
0-0-8-870000;68
0-0-8-873000;117
0-0-8-874000;139
0-0-8-876000;150
0-0-8-878000;102
0-0-8-880000;64
0-0-8-882000;28
0-0-8-884000;21
0-0-8-886000;-7
0-0-8-888000;31
0-0-8-890000;62
0-0-8-892000;105
0-0-8-894000;130
0-0-8-896000;123
0-0-8-898000;99
0-0-8-900000;53
0-0-8-902000;23
0-0-8-904000;25
0-0-8-907000;-12
0-0-8-909000;23
0-0-8-911000;63
0-0-8-913000;120
0-0-8-915000;128
0-0-8-916000;131
0-0-8-918000;99
0-0-8-920000;46
0-0-8-922000;3
0-0-8-924000;-11
0-0-8-926000;-10
0-0-8-928000;15
0-0-8-930000;68
0-0-8-932000;87
0-0-8-934000;118
0-0-8-936000;120
0-0-8-938000;94
0-0-8-941000;50
0-0-8-943000;35
0-0-8-945000;-12
0-0-8-947000;-8
0-0-8-949000;24
0-0-8-951000;61
0-0-8-953000;84
0-0-8-955000;114
0-0-8-957000;109
0-0-8-958000;102
0-0-8-960000;39
0-0-8-962000;-3
0-0-8-964000;-19
0-0-8-966000;-6
0-0-8-968000;27
0-0-8-970000;56
0-0-8-972000;85
0-0-8-974000;125
0-0-8-977000;111
0-0-8-979000;85
0-0-8-981000;15
0-0-8-983000;18
0-0-8-985000;-10
0-0-8-987000;-3
0-0-8-989000;33
0-0-8-991000;50
0-0-8-993000;109
0-0-8-995000;140
0-0-8-997000;131
0-0-9-006000;17
0-0-9-008000;23
0-0-9-013000;128
0-0-9-015000;144
0-0-9-017000;119
0-0-9-019000;93
0-0-9-021000;50
0-0-9-023000;47
0-0-9-025000;26
0-0-9-027000;18
0-0-9-029000;38
0-0-9-031000;93
0-0-9-033000;127
0-0-9-035000;152
0-0-9-037000;143
0-0-9-039000;108
0-0-9-041000;62
0-0-9-042000;54
0-0-9-045000;17
0-0-9-047000;26
0-0-9-049000;41
0-0-9-051000;107
0-0-9-053000;166
0-0-9-055000;154
0-0-9-057000;138
0-0-9-059000;115
0-0-9-061000;79
0-0-9-063000;36
0-0-9-065000;18
0-0-9-067000;44
0-0-9-069000;61
0-0-9-071000;98
0-0-9-073000;160
0-0-9-075000;138
0-0-9-077000;127
0-0-9-080000;96
0-0-9-082000;47
0-0-9-083000;27
0-0-9-085000;31
0-0-9-087000;33
0-0-9-089000;59
0-0-9-091000;106
0-0-9-093000;141
0-0-9-095000;154
0-0-9-097000;139
0-0-9-099000;119
0-0-9-101000;48
0-0-9-103000;29
0-0-9-105000;18
0-0-9-107000;24
0-0-9-109000;52
0-0-9-111000;83
0-0-9-114000;133
0-0-9-116000;139
0-0-9-118000;123
0-0-9-120000;111
0-0-9-122000;55
0-0-9-124000;13
0-0-9-125000;17
0-0-9-127000;30
0-0-9-129000;54
0-0-9-131000;99
0-0-9-133000;141
0-0-9-135000;140
0-0-9-137000;119
0-0-9-139000;88
0-0-9-141000;34
0-0-9-143000;27
0-0-9-145000;32
0-0-9-148000;18
0-0-9-150000;56
0-0-9-152000;90
0-0-9-154000;140
0-0-9-156000;140
0-0-9-158000;106
0-0-9-160000;91
0-0-9-162000;46
0-0-9-164000;14
0-0-9-166000;32
0-0-9-167000;26
0-0-9-169000;65
0-0-9-171000;97
0-0-9-173000;146
0-0-9-175000;111
0-0-9-177000;116
0-0-9-179000;63
0-0-9-181000;26
0-0-9-184000;22
0-0-9-186000;5
0-0-9-188000;29
0-0-9-190000;51
0-0-9-192000;112
0-0-9-194000;116
0-0-9-196000;119
0-0-9-198000;109
0-0-9-200000;72
0-0-9-202000;38
0-0-9-204000;19
0-0-9-206000;-3
0-0-9-208000;33
0-0-9-218000;116
0-0-9-220000;81
0-0-9-222000;29
0-0-9-224000;23
0-0-9-226000;-1
0-0-9-228000;40
0-0-9-230000;73
0-0-9-232000;127
0-0-9-234000;121
0-0-9-236000;129
0-0-9-238000;126
0-0-9-240000;69
0-0-9-242000;29
0-0-9-244000;15
0-0-9-246000;-6
0-0-9-248000;19
0-0-9-249000;67
0-0-9-252000;86
0-0-9-254000;133
0-0-9-256000;132
0-0-9-258000;113
0-0-9-260000;60
0-0-9-262000;27
0-0-9-264000;3
0-0-9-266000;14
0-0-9-268000;23
0-0-9-270000;51
0-0-9-272000;110
0-0-9-274000;129
0-0-9-276000;147
0-0-9-278000;103
0-0-9-280000;51
0-0-9-282000;25
0-0-9-284000;16
0-0-9-287000;5
0-0-9-289000;33
0-0-9-291000;59
0-0-9-292000;124
0-0-9-294000;133
0-0-9-296000;150
0-0-9-298000;96
0-0-9-300000;55
0-0-9-302000;36
0-0-9-304000;9
0-0-9-306000;22
0-0-9-308000;29
0-0-9-310000;57
0-0-9-312000;119
0-0-9-314000;153
0-0-9-316000;130
0-0-9-318000;100
0-0-9-321000;58
0-0-9-323000;44
0-0-9-325000;12
0-0-9-327000;13
0-0-9-329000;34
0-0-9-331000;102
0-0-9-333000;107
0-0-9-334000;124
0-0-9-336000;129
0-0-9-338000;102
0-0-9-340000;80
0-0-9-342000;27
0-0-9-344000;-6
0-0-9-346000;20
0-0-9-348000;39
0-0-9-350000;87
0-0-9-352000;104
0-0-9-355000;124
0-0-9-357000;130
0-0-9-359000;95
0-0-9-361000;73
0-0-9-363000;27
0-0-9-365000;3
0-0-9-367000;10
0-0-9-369000;59
0-0-9-371000;75
0-0-9-373000;103
0-0-9-374000;137
0-0-9-376000;133
0-0-9-378000;84
0-0-9-380000;64
0-0-9-382000;4
0-0-9-384000;12
0-0-9-386000;19
0-0-9-388000;53
0-0-9-391000;63
0-0-9-393000;100
0-0-9-395000;144
0-0-9-397000;135
0-0-9-399000;97
0-0-9-401000;37
0-0-9-403000;17
0-0-9-405000;-1
0-0-9-407000;29
0-0-9-409000;44
0-0-9-411000;73
0-0-9-413000;119
0-0-9-415000;139
0-0-9-416000;124
0-0-9-427000;29
0-0-9-429000;26
0-0-9-431000;79
0-0-9-435000;146
0-0-9-437000;121
0-0-9-439000;74
0-0-9-441000;41
0-0-9-443000;8
0-0-9-445000;10
0-0-9-447000;-1
0-0-9-449000;35
0-0-9-451000;75
0-0-9-453000;129
0-0-9-455000;105
0-0-9-457000;103
0-0-9-459000;75
0-0-9-461000;42
0-0-9-463000;14
0-0-9-465000;-8
0-0-9-467000;-6
0-0-9-469000;42
0-0-9-471000;84
0-0-9-473000;127
0-0-9-475000;113
0-0-9-477000;102
0-0-9-479000;70
0-0-9-481000;48
0-0-9-483000;13
0-0-9-485000;1
0-0-9-487000;19
0-0-9-489000;39
0-0-9-491000;86
0-0-9-494000;116
0-0-9-496000;143
0-0-9-498000;126
0-0-9-499000;111
0-0-9-501000;58
0-0-9-503000;14
0-0-9-505000;15
0-0-9-507000;40
0-0-9-509000;38
0-0-9-511000;115
0-0-9-513000;123
0-0-9-515000;135
0-0-9-517000;122
0-0-9-519000;116
0-0-9-521000;27
0-0-9-523000;15
0-0-9-525000;17
0-0-9-528000;52
0-0-9-530000;63
0-0-9-532000;119
0-0-9-534000;140
0-0-9-536000;133
0-0-9-538000;148
0-0-9-540000;89
0-0-9-541000;22
0-0-9-543000;17
0-0-9-545000;-20
0-0-9-547000;-8
0-0-9-549000;28
0-0-9-551000;87
0-0-9-553000;113
0-0-9-555000;134
0-0-9-557000;145
0-0-9-559000;106
0-0-9-562000;55
0-0-9-564000;30
0-0-9-566000;34
0-0-9-568000;35
0-0-9-570000;77
0-0-9-572000;108
0-0-9-574000;138
0-0-9-576000;155
0-0-9-578000;115
0-0-9-580000;79
0-0-9-582000;52
0-0-9-583000;28
0-0-9-585000;11
0-0-9-587000;33
0-0-9-589000;73
0-0-9-591000;136
0-0-9-593000;132
0-0-9-595000;117
0-0-9-598000;63
0-0-9-600000;34
0-0-9-602000;-26
0-0-9-604000;-48
0-0-9-606000;-96
0-0-9-608000;-111
0-0-9-610000;-89
0-0-9-612000;-43
0-0-9-614000;-59
0-0-9-616000;-25
0-0-9-618000;-45
0-0-9-620000;-78
0-0-9-622000;-85
0-0-9-624000;-119
0-0-9-625000;-73
0-0-9-627000;1
0-0-9-638000;210
0-0-9-640000;160
0-0-9-642000;122
0-0-9-644000;75
0-0-9-646000;54
0-0-9-648000;76
0-0-9-650000;107
0-0-9-652000;143
0-0-9-654000;183
0-0-9-656000;173
0-0-9-658000;155
0-0-9-660000;79
0-0-9-662000;40
0-0-9-664000;52
0-0-9-666000;45
0-0-9-668000;56
0-0-9-670000;95
0-0-9-672000;145
0-0-9-674000;162
0-0-9-676000;179
0-0-9-678000;125
0-0-9-680000;109
0-0-9-682000;50
0-0-9-684000;40
0-0-9-686000;44
0-0-9-688000;72
0-0-9-690000;64
0-0-9-692000;122
0-0-9-694000;147
0-0-9-696000;157
0-0-9-698000;119
0-0-9-701000;54
0-0-9-703000;38
0-0-9-705000;-7
0-0-9-707000;3
0-0-9-708000;34
0-0-9-710000;81
0-0-9-712000;131
0-0-9-714000;154
0-0-9-716000;138
0-0-9-718000;124
0-0-9-720000;74
0-0-9-722000;61
0-0-9-724000;12
0-0-9-726000;11
0-0-9-728000;48
0-0-9-730000;93
0-0-9-732000;90
0-0-9-735000;139
0-0-9-737000;113
0-0-9-739000;106
0-0-9-741000;64
0-0-9-743000;49
0-0-9-745000;0
0-0-9-747000;13
0-0-9-749000;49
0-0-9-750000;57
0-0-9-752000;122
0-0-9-754000;140
0-0-9-756000;123
0-0-9-758000;103
0-0-9-760000;82
0-0-9-762000;20
0-0-9-764000;16
0-0-9-766000;13
0-0-9-768000;47
0-0-9-771000;79
0-0-9-773000;101
0-0-9-775000;101
0-0-9-777000;102
0-0-9-779000;62
0-0-9-781000;45
0-0-9-783000;-6
0-0-9-785000;-27
0-0-9-787000;7
0-0-9-789000;24
0-0-9-791000;56
0-0-9-792000;80
0-0-9-794000;101
0-0-9-796000;114
0-0-9-798000;90
0-0-9-800000;58
0-0-9-802000;15
0-0-9-805000;12
0-0-9-807000;11
0-0-9-809000;-13
0-0-9-811000;41
0-0-9-813000;114
0-0-9-815000;123
0-0-9-817000;99
0-0-9-819000;66
0-0-9-821000;32
0-0-9-823000;2
0-0-9-825000;-4
0-0-9-827000;32
0-0-9-829000;27
0-0-9-831000;74
0-0-9-833000;109
0-0-9-834000;130
0-0-9-836000;124
0-0-9-847000;10
0-0-9-849000;51
0-0-9-851000;77
0-0-9-853000;132
0-0-9-857000;123
0-0-9-859000;71
0-0-9-861000;39
0-0-9-863000;5
0-0-9-865000;32
0-0-9-867000;9
0-0-9-869000;59
0-0-9-871000;86
0-0-9-874000;164
0-0-9-875000;131
0-0-9-877000;127
0-0-9-879000;87
0-0-9-881000;49
0-0-9-883000;36
0-0-9-885000;3
0-0-9-887000;25
0-0-9-889000;64
0-0-9-891000;116
0-0-9-893000;130
0-0-9-895000;141
0-0-9-897000;139
0-0-9-899000;112
0-0-9-901000;51
0-0-9-903000;11
0-0-9-905000;52
0-0-9-908000;54
0-0-9-910000;84
0-0-9-912000;125
0-0-9-914000;147
0-0-9-916000;151
0-0-9-917000;137
0-0-9-919000;98
0-0-9-921000;47
0-0-9-923000;24
0-0-9-925000;20
0-0-9-927000;45
0-0-9-929000;88
0-0-9-931000;110
0-0-9-933000;155
0-0-9-935000;151
0-0-9-937000;134
0-0-9-939000;77
0-0-9-942000;46
0-0-9-944000;12
0-0-9-946000;4
0-0-9-948000;24
0-0-9-950000;79
0-0-9-952000;89
0-0-9-954000;141
0-0-9-956000;122
0-0-9-958000;115
0-0-9-959000;78
0-0-9-961000;35
0-0-9-963000;6
0-0-9-965000;10
0-0-9-967000;11
0-0-9-969000;30
0-0-9-971000;82
0-0-9-973000;108
0-0-9-975000;142
0-0-9-978000;93
0-0-9-980000;51
0-0-9-982000;17
0-0-9-984000;0
0-0-9-986000;-10
0-0-9-988000;36
0-0-9-990000;39
0-0-9-992000;87
0-0-9-994000;135
0-0-9-996000;167
0-0-9-998000;126
0-0-9-999000;58
0-0-10-001000;10
0-0-10-003000;4
0-0-10-005000;-18
0-0-10-007000;19
0-0-10-009000;54
0-0-10-012000;92
0-0-10-014000;117
0-0-10-016000;123
0-0-10-018000;88
0-0-10-020000;66
0-0-10-022000;52
0-0-10-024000;-3
0-0-10-026000;10
0-0-10-028000;21
0-0-10-030000;59
0-0-10-032000;83
0-0-10-034000;134
0-0-10-036000;110
0-0-10-038000;96
0-0-10-040000;61
0-0-10-041000;45
0-0-10-043000;5
0-0-10-046000;-6
0-0-10-048000;26
0-0-10-058000;153
0-0-10-060000;73
0-0-10-062000;30
0-0-10-064000;21
0-0-10-066000;14
0-0-10-068000;53
0-0-10-070000;84
0-0-10-072000;141
0-0-10-074000;149
0-0-10-076000;142
0-0-10-078000;109
0-0-10-081000;87
0-0-10-083000;42
0-0-10-084000;10
0-0-10-086000;1
0-0-10-088000;32
0-0-10-090000;60
0-0-10-092000;120
0-0-10-094000;161
0-0-10-096000;165
0-0-10-098000;118
0-0-10-100000;75
0-0-10-102000;32
0-0-10-104000;-6
0-0-10-106000;23
0-0-10-108000;15
0-0-10-110000;54
0-0-10-112000;148
0-0-10-115000;185
0-0-10-117000;158
0-0-10-119000;128
0-0-10-121000;64
0-0-10-123000;25
0-0-10-124000;16
0-0-10-126000;23
0-0-10-128000;4
0-0-10-130000;54
0-0-10-132000;112
0-0-10-134000;134
0-0-10-136000;116
0-0-10-138000;86
0-0-10-140000;59
0-0-10-142000;20
0-0-10-144000;4
0-0-10-146000;-6
0-0-10-149000;25
0-0-10-151000;74
0-0-10-153000;145
0-0-10-155000;150
0-0-10-157000;136
0-0-10-159000;83
0-0-10-161000;51
0-0-10-163000;9
0-0-10-165000;-35
0-0-10-166000;-8
0-0-10-168000;43
0-0-10-170000;75
0-0-10-172000;150
0-0-10-174000;135
0-0-10-176000;132
0-0-10-178000;102
0-0-10-180000;35
0-0-10-182000;-4
0-0-10-185000;8
0-0-10-187000;-6
0-0-10-189000;22
0-0-10-191000;91
0-0-10-193000;122
0-0-10-195000;112
0-0-10-197000;107
0-0-10-199000;73
0-0-10-201000;36
0-0-10-203000;-9
0-0-10-205000;-23
0-0-10-207000;17
0-0-10-208000;53
0-0-10-210000;104
0-0-10-212000;129
0-0-10-214000;146
0-0-10-216000;123
0-0-10-219000;95
0-0-10-221000;14
0-0-10-223000;-19
0-0-10-225000;-13
0-0-10-227000;3
0-0-10-229000;34
0-0-10-231000;75
0-0-10-233000;117
0-0-10-235000;129
0-0-10-237000;120
0-0-10-239000;67
0-0-10-241000;14
0-0-10-243000;8
0-0-10-245000;3
0-0-10-247000;26
0-0-10-249000;50
0-0-10-250000;89
0-0-10-253000;104
0-0-10-255000;134
0-0-10-257000;142
0-0-10-267000;29
0-0-10-269000;77
0-0-10-271000;107
0-0-10-273000;158
0-0-10-275000;153
0-0-10-279000;127
0-0-10-281000;89
0-0-10-283000;77
0-0-10-285000;12
0-0-10-288000;46
0-0-10-290000;70
0-0-10-291000;140
0-0-10-293000;141
0-0-10-295000;173
0-0-10-297000;146
0-0-10-299000;111
0-0-10-301000;48
0-0-10-303000;34
0-0-10-305000;7
0-0-10-307000;21
0-0-10-309000;56
0-0-10-311000;100
0-0-10-313000;123
0-0-10-315000;135
0-0-10-317000;85
0-0-10-319000;45
0-0-10-322000;37
0-0-10-324000;-7
0-0-10-326000;-6
0-0-10-328000;14
0-0-10-330000;84
0-0-10-332000;118
0-0-10-333000;160
0-0-10-335000;158
0-0-10-337000;127
0-0-10-339000;83
0-0-10-341000;41
0-0-10-343000;-4
0-0-10-345000;-15
0-0-10-347000;-25
0-0-10-349000;21
0-0-10-351000;13
0-0-10-353000;65
0-0-10-355000;24
0-0-10-358000;1
0-0-10-360000;-50
0-0-10-362000;-113
0-0-10-364000;-130
0-0-10-366000;-144
0-0-10-368000;-96
0-0-10-370000;-44
0-0-10-372000;32
0-0-10-374000;94
0-0-10-375000;148
0-0-10-377000;141
0-0-10-379000;144
0-0-10-381000;117
0-0-10-383000;104
0-0-10-385000;90
0-0-10-387000;130
0-0-10-389000;131
0-0-10-392000;201
0-0-10-394000;228
0-0-10-396000;245
0-0-10-398000;174
0-0-10-400000;120
0-0-10-402000;82
0-0-10-404000;48
0-0-10-406000;50
0-0-10-408000;53
0-0-10-410000;106
0-0-10-412000;158
0-0-10-414000;215
0-0-10-416000;196
0-0-10-417000;139
0-0-10-419000;77
0-0-10-421000;70
0-0-10-423000;37
0-0-10-426000;43
0-0-10-428000;53
0-0-10-430000;96
0-0-10-432000;144
0-0-10-434000;171
0-0-10-436000;167
0-0-10-438000;130
0-0-10-440000;94
0-0-10-442000;67
0-0-10-444000;25
0-0-10-446000;24
0-0-10-448000;42
0-0-10-450000;74
0-0-10-452000;147
0-0-10-454000;161
0-0-10-456000;171
0-0-10-458000;132
0-0-10-460000;122
0-0-10-462000;44
0-0-10-464000;14
0-0-10-466000;15
0-0-10-468000;70
0-0-10-478000;123
0-0-10-480000;90
0-0-10-482000;8
0-0-10-484000;6
0-0-10-486000;-4
0-0-10-488000;35
0-0-10-490000;61
0-0-10-492000;107
0-0-10-495000;146
0-0-10-497000;137
0-0-10-499000;119
0-0-10-500000;49
0-0-10-502000;10
0-0-10-504000;-20
0-0-10-506000;25
0-0-10-508000;16
0-0-10-510000;77
0-0-10-512000;119
0-0-10-514000;144
0-0-10-516000;138
0-0-10-518000;117
0-0-10-520000;46
0-0-10-522000;-12
0-0-10-524000;-24
0-0-10-526000;-13
0-0-10-529000;27
0-0-10-531000;52
0-0-10-533000;95
0-0-10-535000;127
0-0-10-537000;110
0-0-10-539000;68
0-0-10-541000;45
0-0-10-542000;-1
0-0-10-544000;7
0-0-10-546000;-39
0-0-10-548000;2
0-0-10-550000;59
0-0-10-552000;115
0-0-10-554000;113
0-0-10-556000;117
0-0-10-558000;74
0-0-10-560000;34
0-0-10-562000;9
0-0-10-565000;-3
0-0-10-567000;-27
0-0-10-569000;3
0-0-10-571000;61
0-0-10-573000;118
0-0-10-575000;115
0-0-10-577000;116
0-0-10-579000;105
0-0-10-581000;43
0-0-10-583000;26
0-0-10-584000;-23
0-0-10-586000;-13
0-0-10-588000;22
0-0-10-590000;86
0-0-10-592000;101
0-0-10-594000;130
0-0-10-596000;111
0-0-10-599000;88
0-0-10-601000;36
0-0-10-603000;10
0-0-10-605000;-6
0-0-10-607000;-5
0-0-10-609000;31
0-0-10-611000;91
0-0-10-613000;104
0-0-10-615000;132
0-0-10-617000;126
0-0-10-619000;93
0-0-10-621000;42
0-0-10-623000;19
0-0-10-624000;-1
0-0-10-626000;14
0-0-10-628000;40
0-0-10-630000;86
0-0-10-633000;144
0-0-10-635000;175
0-0-10-637000;169
0-0-10-639000;133
0-0-10-641000;67
0-0-10-643000;29
0-0-10-645000;22
0-0-10-647000;22
0-0-10-649000;72
0-0-10-651000;105
0-0-10-653000;162
0-0-10-655000;177
0-0-10-657000;173
0-0-10-659000;98
0-0-10-661000;71
0-0-10-663000;36
0-0-10-665000;41
0-0-10-667000;32
0-0-10-669000;71
0-0-10-671000;107
0-0-10-673000;151
0-0-10-675000;169
0-0-10-677000;121
0-0-10-687000;9
0-0-10-689000;58
0-0-10-691000;85
0-0-10-693000;135
0-0-10-695000;164
0-0-10-697000;118
0-0-10-702000;4
0-0-10-704000;-4
0-0-10-706000;-33
0-0-10-708000;-8
0-0-10-709000;62
0-0-10-711000;90
0-0-10-713000;134
0-0-10-715000;140
0-0-10-717000;113
0-0-10-719000;88
0-0-10-721000;47
0-0-10-723000;-6
0-0-10-725000;4
0-0-10-727000;-12
0-0-10-729000;34
0-0-10-731000;104
0-0-10-733000;125
0-0-10-736000;133
0-0-10-738000;123
0-0-10-740000;93
0-0-10-742000;41
0-0-10-744000;-20
0-0-10-746000;-18
0-0-10-748000;13
0-0-10-749000;51
0-0-10-751000;85
0-0-10-753000;138
0-0-10-755000;149
0-0-10-757000;142
0-0-10-759000;119
0-0-10-761000;55
0-0-10-763000;15
0-0-10-765000;18
0-0-10-767000;32
0-0-10-769000;49
0-0-10-772000;89
0-0-10-774000;120
0-0-10-776000;138
0-0-10-778000;126
0-0-10-780000;98
0-0-10-782000;14
0-0-10-784000;-4
0-0-10-786000;-20
0-0-10-788000;-4
0-0-10-790000;-7
0-0-10-791000;69
0-0-10-793000;127
0-0-10-795000;119
0-0-10-797000;101
0-0-10-799000;52
0-0-10-801000;26
0-0-10-803000;4
0-0-10-806000;16
0-0-10-808000;-16
0-0-10-810000;34
0-0-10-812000;49
0-0-10-814000;125
0-0-10-816000;121
0-0-10-818000;110
0-0-10-820000;45
0-0-10-822000;0
0-0-10-824000;-11
0-0-10-826000;37
0-0-10-828000;27
0-0-10-830000;98
0-0-10-832000;156
0-0-10-833000;180
0-0-10-835000;145
0-0-10-837000;132
0-0-10-840000;52
0-0-10-842000;10
0-0-10-844000;-18
0-0-10-846000;2
0-0-10-848000;38
0-0-10-850000;82
0-0-10-852000;149
0-0-10-854000;141
0-0-10-856000;114
0-0-10-858000;101
0-0-10-860000;45
0-0-10-862000;1
0-0-10-864000;-14
0-0-10-866000;17
0-0-10-868000;29
0-0-10-870000;37
0-0-10-872000;91
0-0-10-874000;137
0-0-10-876000;160
0-0-10-878000;119
0-0-10-880000;99
0-0-10-882000;27
0-0-10-884000;-4
0-0-10-886000;-40
0-0-10-888000;-30
0-0-10-898000;159
0-0-10-900000;83
0-0-10-902000;22
0-0-10-904000;-12
0-0-10-906000;-7
0-0-10-909000;28
0-0-10-911000;65
0-0-10-913000;86
0-0-10-915000;120
0-0-10-916000;119
0-0-10-918000;105
0-0-10-920000;30
0-0-10-922000;12
0-0-10-924000;-13
0-0-10-926000;5
0-0-10-928000;27
0-0-10-930000;70
0-0-10-932000;105
0-0-10-934000;130
0-0-10-936000;154
0-0-10-938000;86
0-0-10-940000;37
0-0-10-943000;-18
0-0-10-945000;-13
0-0-10-947000;-21
0-0-10-949000;7
0-0-10-951000;54
0-0-10-953000;111
0-0-10-955000;129
0-0-10-957000;135
0-0-10-958000;97
0-0-10-960000;47
0-0-10-962000;5
0-0-10-964000;25
0-0-10-966000;3
0-0-10-968000;16
0-0-10-970000;65
0-0-10-972000;98
0-0-10-974000;151
0-0-10-976000;147
0-0-10-979000;131
0-0-10-981000;74
0-0-10-983000;51
0-0-10-985000;21
0-0-10-987000;17
0-0-10-989000;55
0-0-10-991000;115
0-0-10-993000;138
0-0-10-995000;141
0-0-10-997000;144
0-0-10-999000;113
0-0-11-000000;78
0-0-11-002000;44
0-0-11-004000;-13
0-0-11-006000;7
0-0-11-008000;42
0-0-11-010000;97
0-0-11-013000;119
0-0-11-015000;140
0-0-11-017000;123
0-0-11-019000;81
0-0-11-021000;34
0-0-11-023000;-22
0-0-11-025000;-18
0-0-11-027000;12
0-0-11-029000;63
0-0-11-031000;92
0-0-11-033000;153
0-0-11-035000;150
0-0-11-037000;137
0-0-11-039000;62
0-0-11-041000;-10
0-0-11-042000;-7
0-0-11-044000;-5
0-0-11-047000;35
0-0-11-049000;65
0-0-11-051000;69
0-0-11-053000;131
0-0-11-055000;137
0-0-11-057000;125
0-0-11-059000;51
0-0-11-061000;6
0-0-11-063000;-49
0-0-11-065000;-59
0-0-11-067000;-56
0-0-11-069000;-23
0-0-11-071000;26
0-0-11-073000;70
0-0-11-075000;92
0-0-11-077000;37
0-0-11-079000;-63
0-0-11-082000;-118
0-0-11-083000;-164
0-0-11-085000;-202
0-0-11-087000;-164
0-0-11-089000;-109
0-0-11-091000;-77
0-0-11-093000;-18
0-0-11-095000;71
0-0-11-097000;88
0-0-11-107000;91
0-0-11-109000;141
0-0-11-111000;205
0-0-11-113000;263
0-0-11-116000;225
0-0-11-118000;196
0-0-11-120000;145
0-0-11-124000;13
0-0-11-125000;34
0-0-11-127000;61
0-0-11-129000;81
0-0-11-131000;145
0-0-11-133000;206
0-0-11-135000;160
0-0-11-137000;137
0-0-11-139000;86
0-0-11-141000;52
0-0-11-143000;2
0-0-11-145000;12
0-0-11-147000;15
0-0-11-149000;41
0-0-11-152000;109
0-0-11-154000;142
0-0-11-156000;153
0-0-11-158000;129
0-0-11-160000;93
0-0-11-162000;34
0-0-11-164000;-1
0-0-11-166000;-7
0-0-11-167000;43
0-0-11-169000;60
0-0-11-171000;99
0-0-11-173000;100
0-0-11-175000;104
0-0-11-177000;100
0-0-11-179000;53
0-0-11-181000;-8
0-0-11-183000;-11
0-0-11-186000;14
0-0-11-188000;48
0-0-11-190000;61
0-0-11-192000;116
0-0-11-194000;157
0-0-11-196000;165
0-0-11-198000;144
0-0-11-200000;59
0-0-11-202000;45
0-0-11-204000;16
0-0-11-206000;26
0-0-11-208000;16
0-0-11-209000;74
0-0-11-211000;128
0-0-11-213000;160
0-0-11-215000;172
0-0-11-217000;145
0-0-11-220000;51
0-0-11-222000;13
0-0-11-224000;-8
0-0-11-226000;9
0-0-11-228000;13
0-0-11-230000;87
0-0-11-232000;126
0-0-11-234000;172
0-0-11-236000;156
0-0-11-238000;118
0-0-11-240000;62
0-0-11-242000;6
0-0-11-244000;-11
0-0-11-246000;-35
0-0-11-248000;-10
0-0-11-249000;45
0-0-11-251000;116
0-0-11-254000;139
0-0-11-256000;122
0-0-11-258000;107
0-0-11-260000;45
0-0-11-262000;36
0-0-11-264000;15
0-0-11-266000;-12
0-0-11-268000;-29
0-0-11-270000;22
0-0-11-272000;112
0-0-11-274000;117
0-0-11-276000;142
0-0-11-278000;97
0-0-11-280000;70
0-0-11-282000;32
0-0-11-284000;11
0-0-11-286000;7
0-0-11-289000;79
0-0-11-291000;129
0-0-11-292000;166
0-0-11-294000;204
0-0-11-296000;184
0-0-11-298000;143
0-0-11-300000;85
0-0-11-302000;28
0-0-11-304000;4
0-0-11-306000;41
0-0-11-308000;51
0-0-11-320000;78
0-0-11-323000;39
0-0-11-325000;14
0-0-11-327000;-6
0-0-11-329000;25
0-0-11-331000;56
0-0-11-333000;148
0-0-11-334000;214
0-0-11-336000;201
0-0-11-338000;142
0-0-11-340000;111
0-0-11-342000;76
0-0-11-344000;47
0-0-11-346000;48
0-0-11-348000;55
0-0-11-350000;94
0-0-11-352000;133
0-0-11-354000;148
0-0-11-356000;112
0-0-11-359000;33
0-0-11-361000;24
0-0-11-363000;18
0-0-11-365000;43
0-0-11-367000;120
0-0-11-369000;152
0-0-11-371000;193
0-0-11-373000;208
0-0-11-374000;226
0-0-11-376000;193
0-0-11-378000;129
0-0-11-380000;89
0-0-11-382000;50
0-0-11-384000;11
0-0-11-386000;33
0-0-11-388000;61
0-0-11-390000;93
0-0-11-393000;143
0-0-11-395000;145
0-0-11-397000;112
0-0-11-399000;93
0-0-11-401000;52
0-0-11-403000;-2
0-0-11-405000;-10
0-0-11-407000;-2
0-0-11-409000;33
0-0-11-411000;57
0-0-11-413000;113
0-0-11-415000;119
0-0-11-416000;102
0-0-11-418000;86
0-0-11-420000;55
0-0-11-422000;-1
0-0-11-424000;10
0-0-11-427000;8
0-0-11-429000;43
0-0-11-431000;77
0-0-11-433000;122
0-0-11-435000;129
0-0-11-437000;122
0-0-11-439000;66
0-0-11-441000;43
0-0-11-443000;-23
0-0-11-445000;-9
0-0-11-447000;-3
0-0-11-449000;62
0-0-11-451000;87
0-0-11-453000;116
0-0-11-455000;105
0-0-11-457000;115
0-0-11-458000;90
0-0-11-461000;10
0-0-11-463000;64
0-0-11-465000;63
0-0-11-467000;57
0-0-11-469000;75
0-0-11-471000;118
0-0-11-473000;121
0-0-11-475000;149
0-0-11-477000;126
0-0-11-479000;78
0-0-11-481000;19
0-0-11-483000;-9
0-0-11-485000;-3
0-0-11-487000;11
0-0-11-489000;7
0-0-11-491000;90
0-0-11-493000;128
0-0-11-496000;129
0-0-11-498000;113
0-0-11-499000;62
0-0-11-501000;20
0-0-11-503000;-26
0-0-11-505000;-19
0-0-11-507000;7
0-0-11-509000;35
0-0-11-511000;81
0-0-11-513000;157
0-0-11-515000;153
0-0-11-517000;137
0-0-11-519000;104
0-0-11-530000;47
0-0-11-532000;97
0-0-11-534000;118
0-0-11-536000;104
0-0-11-538000;106
0-0-11-540000;57
0-0-11-541000;35
0-0-11-543000;7
0-0-11-547000;13
0-0-11-549000;75
0-0-11-551000;151
0-0-11-553000;180
0-0-11-555000;153
0-0-11-557000;120
0-0-11-559000;81
0-0-11-561000;7
0-0-11-563000;4
0-0-11-566000;-29
0-0-11-568000;18
0-0-11-570000;50
0-0-11-572000;80
0-0-11-574000;71
0-0-11-576000;83
0-0-11-578000;64
0-0-11-580000;32
0-0-11-582000;7
0-0-11-583000;62
0-0-11-585000;47
0-0-11-587000;50
0-0-11-589000;80
0-0-11-591000;103
0-0-11-593000;125
0-0-11-595000;83
0-0-11-597000;55
0-0-11-600000;-15
0-0-11-602000;-30
0-0-11-604000;-39
0-0-11-606000;13
0-0-11-608000;34
0-0-11-610000;39
0-0-11-612000;150
0-0-11-614000;166
0-0-11-616000;148
0-0-11-618000;149
0-0-11-620000;43
0-0-11-622000;-2
0-0-11-624000;-12
0-0-11-625000;4
0-0-11-627000;21
0-0-11-629000;80
0-0-11-631000;127
0-0-11-634000;187
0-0-11-636000;178
0-0-11-638000;109
0-0-11-640000;53
0-0-11-642000;30
0-0-11-644000;33
0-0-11-646000;-16
0-0-11-648000;13
0-0-11-650000;-9
0-0-11-652000;44
0-0-11-654000;78
0-0-11-656000;133
0-0-11-658000;120
0-0-11-660000;109
0-0-11-662000;60
0-0-11-664000;38
0-0-11-666000;5
0-0-11-668000;37
0-0-11-670000;76
0-0-11-672000;132
0-0-11-674000;121
0-0-11-676000;115
0-0-11-678000;119
0-0-11-680000;59
0-0-11-682000;56
0-0-11-684000;17
0-0-11-686000;17
0-0-11-688000;34
0-0-11-690000;74
0-0-11-692000;96
0-0-11-694000;138
0-0-11-696000;139
0-0-11-698000;116
0-0-11-700000;87
0-0-11-703000;62
0-0-11-705000;-4
0-0-11-707000;-4
0-0-11-708000;35
0-0-11-710000;92
0-0-11-712000;107
0-0-11-714000;103
0-0-11-716000;116
0-0-11-718000;86
0-0-11-720000;62
0-0-11-722000;32
0-0-11-724000;31
0-0-11-726000;9
0-0-11-728000;68
0-0-11-730000;84
0-0-11-741000;43
0-0-11-743000;14
0-0-11-745000;0
0-0-11-747000;-16
0-0-11-749000;37
0-0-11-750000;79
0-0-11-752000;123
0-0-11-754000;155
0-0-11-756000;156
0-0-11-758000;91
0-0-11-760000;28
0-0-11-762000;-6
0-0-11-764000;-32
0-0-11-766000;-34
0-0-11-768000;-46
0-0-11-770000;-38
0-0-11-773000;4
0-0-11-775000;25
0-0-11-777000;-11
0-0-11-779000;-53
0-0-11-781000;-129
0-0-11-783000;-160
0-0-11-785000;-162
0-0-11-787000;-126
0-0-11-789000;-118
0-0-11-791000;-53
0-0-11-792000;25
0-0-11-794000;77
0-0-11-796000;69
0-0-11-798000;73
0-0-11-800000;85
0-0-11-802000;98
0-0-11-804000;73
0-0-11-807000;97
0-0-11-809000;131
0-0-11-811000;176
0-0-11-813000;208
0-0-11-815000;217
0-0-11-817000;190
0-0-11-819000;155
0-0-11-821000;107
0-0-11-823000;52
0-0-11-825000;46
0-0-11-827000;42
0-0-11-829000;82
0-0-11-831000;144
0-0-11-833000;180
0-0-11-834000;160
0-0-11-836000;150
0-0-11-838000;114
0-0-11-841000;96
0-0-11-843000;42
0-0-11-845000;45
0-0-11-847000;60
0-0-11-849000;87
0-0-11-851000;141
0-0-11-853000;167
0-0-11-855000;164
0-0-11-857000;146
0-0-11-859000;120
0-0-11-861000;42
0-0-11-863000;23
0-0-11-865000;13
0-0-11-867000;32
0-0-11-869000;103
0-0-11-871000;138
0-0-11-873000;182
0-0-11-875000;178
0-0-11-877000;167
0-0-11-879000;153
0-0-11-881000;60
0-0-11-883000;51
0-0-11-885000;51
0-0-11-887000;65
0-0-11-889000;79
0-0-11-891000;140
0-0-11-893000;154
0-0-11-895000;149
0-0-11-897000;170
0-0-11-899000;96
0-0-11-901000;72
0-0-11-903000;33
0-0-11-905000;48
0-0-11-907000;58
0-0-11-910000;77
0-0-11-912000;127
0-0-11-914000;166
0-0-11-916000;152
0-0-11-917000;127
0-0-11-919000;80
0-0-11-921000;46
0-0-11-923000;17
0-0-11-925000;7
0-0-11-927000;15
0-0-11-929000;58
0-0-11-931000;117
0-0-11-933000;138
0-0-11-935000;143
0-0-11-937000;112
0-0-11-939000;76
0-0-11-954000;122
0-0-11-956000;113
0-0-11-958000;99
0-0-11-959000;42
0-0-11-961000;11
0-0-11-963000;3
0-0-11-965000;-18
0-0-11-967000;-3
0-0-11-969000;26
0-0-11-973000;75
0-0-11-975000;88
0-0-11-977000;63
0-0-11-980000;34
0-0-11-982000;9
0-0-11-984000;-16
0-0-11-986000;-31
0-0-11-988000;5
0-0-11-990000;55
0-0-11-992000;92
0-0-11-994000;123
0-0-11-996000;101
0-0-11-998000;96
0-0-11-999000;46
0-0-12-001000;5
0-0-12-003000;1
0-0-12-005000;21
0-0-12-007000;18
0-0-12-009000;65
0-0-12-011000;87
0-0-12-014000;123
0-0-12-016000;124
0-0-12-018000;110
0-0-12-020000;37
0-0-12-022000;18
0-0-12-024000;4
0-0-12-026000;1
0-0-12-028000;58
0-0-12-030000;64
0-0-12-032000;109
0-0-12-034000;136
0-0-12-036000;150
0-0-12-038000;110
0-0-12-040000;74
0-0-12-041000;44
0-0-12-043000;22
0-0-12-045000;23
0-0-12-048000;69
0-0-12-050000;70
0-0-12-052000;128
0-0-12-054000;136
0-0-12-056000;163
0-0-12-058000;97
0-0-12-060000;65
0-0-12-062000;35
0-0-12-064000;31
0-0-12-066000;25
0-0-12-068000;50
0-0-12-070000;89
0-0-12-072000;119
0-0-12-074000;163
0-0-12-076000;156
0-0-12-078000;101
0-0-12-080000;49
0-0-12-083000;42
0-0-12-084000;3
0-0-12-086000;16
0-0-12-088000;38
0-0-12-090000;82
0-0-12-092000;104
0-0-12-094000;146
0-0-12-096000;100
0-0-12-098000;92
0-0-12-100000;44
0-0-12-102000;24
0-0-12-104000;-1
0-0-12-106000;6
0-0-12-108000;22
0-0-12-110000;73
0-0-12-112000;106
0-0-12-114000;115
0-0-12-117000;122
0-0-12-119000;82
0-0-12-121000;51
0-0-12-123000;4
0-0-12-124000;-6
0-0-12-126000;13
0-0-12-128000;46
0-0-12-130000;71
0-0-12-132000;113
0-0-12-134000;124
0-0-12-136000;127
0-0-12-138000;90
0-0-12-140000;49
0-0-12-142000;5
0-0-12-144000;3
0-0-12-146000;11
0-0-12-148000;58
0-0-12-150000;73
0-0-12-153000;129
0-0-12-155000;142
0-0-12-166000;26
0-0-12-168000;30
0-0-12-170000;72
0-0-12-172000;98
0-0-12-174000;135
0-0-12-176000;110
0-0-12-178000;59
0-0-12-180000;55
0-0-12-182000;6
0-0-12-184000;-3
0-0-12-187000;18
0-0-12-189000;23
0-0-12-191000;72
0-0-12-193000;134
0-0-12-195000;131
0-0-12-197000;100
0-0-12-199000;65
0-0-12-201000;25
0-0-12-203000;23
0-0-12-205000;41
0-0-12-207000;19
0-0-12-208000;44
0-0-12-210000;86
0-0-12-212000;133
0-0-12-214000;131
0-0-12-216000;118
0-0-12-218000;97
0-0-12-221000;31
0-0-12-223000;3
0-0-12-225000;27
0-0-12-227000;20
0-0-12-229000;58
0-0-12-231000;92
0-0-12-233000;144
0-0-12-235000;132
0-0-12-237000;125
0-0-12-239000;95
0-0-12-241000;50
0-0-12-243000;19
0-0-12-245000;9
0-0-12-247000;37
0-0-12-249000;71
0-0-12-250000;130
0-0-12-252000;151
0-0-12-255000;155
0-0-12-257000;135
0-0-12-259000;97
0-0-12-261000;36
0-0-12-263000;30
0-0-12-265000;16
0-0-12-267000;9
0-0-12-269000;70
0-0-12-271000;114
0-0-12-273000;127
0-0-12-275000;136
0-0-12-277000;125
0-0-12-279000;68
0-0-12-281000;37
0-0-12-283000;-16
0-0-12-285000;-11
0-0-12-287000;-15
0-0-12-290000;41
0-0-12-291000;81
0-0-12-293000;103
0-0-12-295000;118
0-0-12-297000;105
0-0-12-299000;43
0-0-12-301000;10
0-0-12-303000;-17
0-0-12-305000;8
0-0-12-307000;5
0-0-12-309000;51
0-0-12-311000;73
0-0-12-313000;114
0-0-12-315000;120
0-0-12-317000;95
0-0-12-319000;25
0-0-12-321000;14
0-0-12-324000;10
0-0-12-326000;-6
0-0-12-328000;17
0-0-12-330000;39
0-0-12-332000;90
0-0-12-333000;115
0-0-12-335000;133
0-0-12-337000;95
0-0-12-339000;59
0-0-12-341000;16
0-0-12-343000;12
0-0-12-345000;0
0-0-12-347000;25
0-0-12-349000;86
0-0-12-351000;116
0-0-12-353000;131
0-0-12-355000;151
0-0-12-357000;96
0-0-12-360000;65
0-0-12-362000;53
0-0-12-364000;25
0-0-12-366000;-1
0-0-12-377000;142
0-0-12-379000;68
0-0-12-381000;31
0-0-12-383000;20
0-0-12-385000;20
0-0-12-387000;44
0-0-12-389000;92
0-0-12-391000;121
0-0-12-394000;142
0-0-12-396000;148
0-0-12-400000;76
0-0-12-402000;54
0-0-12-404000;12
0-0-12-406000;16
0-0-12-408000;36
0-0-12-410000;97
0-0-12-412000;119
0-0-12-414000;145
0-0-12-416000;135
0-0-12-417000;126
0-0-12-419000;88
0-0-12-421000;35
0-0-12-423000;34
0-0-12-425000;26
0-0-12-428000;58
0-0-12-430000;88
0-0-12-432000;115
0-0-12-434000;154
0-0-12-436000;156
0-0-12-438000;133
0-0-12-440000;71
0-0-12-442000;21
0-0-12-444000;34
0-0-12-446000;31
0-0-12-448000;67
0-0-12-450000;73
0-0-12-452000;123
0-0-12-454000;130
0-0-12-456000;114
0-0-12-458000;42
0-0-12-459000;-26
0-0-12-462000;-79
0-0-12-464000;-101
0-0-12-466000;-109
0-0-12-468000;-122
0-0-12-470000;-92
0-0-12-472000;-56
0-0-12-474000;-8
0-0-12-476000;-44
0-0-12-478000;-52
0-0-12-480000;-83
0-0-12-482000;-75
0-0-12-484000;-56
0-0-12-486000;-23
0-0-12-488000;50
0-0-12-490000;133
0-0-12-492000;193
0-0-12-494000;233
0-0-12-497000;191
0-0-12-499000;172
0-0-12-500000;120
0-0-12-502000;103
0-0-12-504000;51
0-0-12-506000;60
0-0-12-508000;70
0-0-12-510000;111
0-0-12-512000;151
0-0-12-514000;154
0-0-12-516000;141
0-0-12-518000;111
0-0-12-520000;83
0-0-12-522000;22
0-0-12-524000;10
0-0-12-526000;42
0-0-12-528000;72
0-0-12-530000;101
0-0-12-533000;156
0-0-12-535000;132
0-0-12-537000;139
0-0-12-539000;94
0-0-12-541000;78
0-0-12-542000;15
0-0-12-544000;24
0-0-12-546000;38
0-0-12-548000;66
0-0-12-550000;106
0-0-12-552000;140
0-0-12-554000;141
0-0-12-556000;141
0-0-12-558000;107
0-0-12-560000;50
0-0-12-562000;28
0-0-12-564000;13
0-0-12-567000;39
0-0-12-569000;34
0-0-12-571000;88
0-0-12-573000;133
0-0-12-575000;143
0-0-12-577000;135
0-0-12-579000;109
0-0-12-588000;59
0-0-12-590000;98
0-0-12-592000;129
0-0-12-594000;158
0-0-12-596000;155
0-0-12-598000;84
0-0-12-601000;57
0-0-12-603000;25
0-0-12-605000;23
0-0-12-607000;25
0-0-12-609000;52
0-0-12-611000;113
0-0-12-613000;137
0-0-12-615000;143
0-0-12-617000;126
0-0-12-619000;76
0-0-12-621000;47
0-0-12-623000;19
0-0-12-624000;20
0-0-12-626000;10
0-0-12-628000;47
0-0-12-630000;88
0-0-12-632000;146
0-0-12-635000;138
0-0-12-637000;111
0-0-12-639000;69
0-0-12-641000;38
0-0-12-643000;18
0-0-12-645000;-4
0-0-12-647000;16
0-0-12-649000;59
0-0-12-651000;104
0-0-12-653000;107
0-0-12-655000;110
0-0-12-657000;110
0-0-12-659000;53
0-0-12-661000;20
0-0-12-663000;4
0-0-12-665000;-11
0-0-12-666000;5
0-0-12-669000;45
0-0-12-671000;103
0-0-12-673000;110
0-0-12-675000;131
0-0-12-677000;101
0-0-12-679000;59
0-0-12-681000;19
0-0-12-683000;-12
0-0-12-685000;-7
0-0-12-687000;6
0-0-12-689000;62
0-0-12-691000;112
0-0-12-693000;132
0-0-12-695000;130
0-0-12-697000;123
0-0-12-699000;63
0-0-12-701000;37
0-0-12-704000;-5
0-0-12-706000;5
0-0-12-708000;17
0-0-12-709000;69
0-0-12-711000;98
0-0-12-713000;151
0-0-12-715000;132
0-0-12-717000;138
0-0-12-719000;65
0-0-12-721000;33
0-0-12-723000;18
0-0-12-725000;20
0-0-12-727000;45
0-0-12-729000;82
0-0-12-731000;120
0-0-12-733000;150
0-0-12-735000;165
0-0-12-737000;120
0-0-12-740000;85
0-0-12-742000;42
0-0-12-744000;44
0-0-12-746000;13
0-0-12-748000;37
0-0-12-749000;76
0-0-12-751000;130
0-0-12-753000;155
0-0-12-755000;152
0-0-12-757000;111
0-0-12-759000;67
0-0-12-761000;55
0-0-12-763000;17
0-0-12-765000;0
0-0-12-767000;38
0-0-12-769000;79
0-0-12-771000;130
0-0-12-774000;171
0-0-12-776000;133
0-0-12-778000;113
0-0-12-780000;63
0-0-12-782000;52
0-0-12-784000;16
0-0-12-786000;16
0-0-12-788000;55
0-0-12-799000;75
0-0-12-801000;32
0-0-12-803000;0
0-0-12-805000;24
0-0-12-808000;42
0-0-12-810000;95
0-0-12-812000;129
0-0-12-814000;138
0-0-12-816000;134
0-0-12-818000;92
0-0-12-820000;77
0-0-12-824000;17
0-0-12-826000;2
0-0-12-828000;60
0-0-12-830000;68
0-0-12-832000;116
0-0-12-833000;142
0-0-12-835000;118
0-0-12-837000;106
0-0-12-839000;69
0-0-12-842000;17
0-0-12-844000;-4
0-0-12-846000;3
0-0-12-848000;45
0-0-12-850000;99
0-0-12-852000;121
0-0-12-854000;138
0-0-12-856000;118
0-0-12-858000;98
0-0-12-860000;50
0-0-12-862000;19
0-0-12-864000;2
0-0-12-866000;18
0-0-12-868000;34
0-0-12-870000;70
0-0-12-872000;122
0-0-12-874000;168
0-0-12-876000;120
0-0-12-878000;100
0-0-12-880000;49
0-0-12-882000;5
0-0-12-884000;9
0-0-12-886000;23
0-0-12-888000;29
0-0-12-890000;86
0-0-12-892000;132
0-0-12-894000;157
0-0-12-896000;129
0-0-12-898000;91
0-0-12-900000;55
0-0-12-902000;28
0-0-12-904000;9
0-0-12-906000;3
0-0-12-908000;47
0-0-12-911000;87
0-0-12-913000;137
0-0-12-915000;138
0-0-12-916000;116
0-0-12-918000;94
0-0-12-920000;41
0-0-12-922000;24
0-0-12-924000;30
0-0-12-926000;5
0-0-12-928000;32
0-0-12-930000;112
0-0-12-932000;143
0-0-12-934000;138
0-0-12-936000;130
0-0-12-938000;90
0-0-12-940000;62
0-0-12-942000;20
0-0-12-944000;12
0-0-12-947000;5
0-0-12-949000;39
0-0-12-951000;74
0-0-12-953000;117
0-0-12-955000;128
0-0-12-957000;127
0-0-12-958000;110
0-0-12-960000;27
0-0-12-962000;24
0-0-12-964000;5
0-0-12-966000;8
0-0-12-968000;57
0-0-12-970000;111
0-0-12-972000;122
0-0-12-974000;133
0-0-12-976000;120
0-0-12-978000;81
0-0-12-981000;23
0-0-12-983000;6
0-0-12-985000;-2
0-0-12-987000;-1
0-0-12-989000;66
0-0-12-991000;82
0-0-12-993000;121
0-0-12-995000;154
0-0-12-997000;140
0-0-12-999000;75
0-0-13-000000;25
0-0-13-012000;116
0-0-13-015000;116
0-0-13-017000;119
0-0-13-019000;49
0-0-13-021000;9
0-0-13-023000;13
0-0-13-025000;2
0-0-13-027000;-5
0-0-13-029000;46
0-0-13-031000;76
0-0-13-033000;136
0-0-13-035000;139
0-0-13-037000;104
0-0-13-039000;54
0-0-13-041000;25
0-0-13-042000;22
0-0-13-044000;-6
0-0-13-046000;20
0-0-13-049000;44
0-0-13-051000;118
0-0-13-053000;138
0-0-13-055000;137
0-0-13-057000;113
0-0-13-059000;78
0-0-13-061000;41
0-0-13-063000;26
0-0-13-065000;-5
0-0-13-067000;21
0-0-13-069000;57
0-0-13-071000;139
0-0-13-073000;142
0-0-13-075000;152
0-0-13-077000;112
0-0-13-079000;74
0-0-13-081000;49
0-0-13-083000;14
0-0-13-085000;12
0-0-13-087000;19
0-0-13-089000;83
0-0-13-091000;90
0-0-13-093000;136
0-0-13-095000;140
0-0-13-097000;112
0-0-13-099000;75
0-0-13-101000;41
0-0-13-103000;-11
0-0-13-105000;18
0-0-13-107000;45
0-0-13-109000;89
0-0-13-111000;96
0-0-13-113000;142
0-0-13-115000;134
0-0-13-117000;114
0-0-13-120000;82
0-0-13-122000;21
0-0-13-124000;10
0-0-13-125000;4
0-0-13-127000;41
0-0-13-129000;46
0-0-13-131000;114
0-0-13-133000;142
0-0-13-135000;149
0-0-13-137000;102
0-0-13-139000;55
0-0-13-141000;43
0-0-13-143000;20
0-0-13-145000;-2
0-0-13-147000;27
0-0-13-149000;35
0-0-13-151000;59
0-0-13-154000;79
0-0-13-156000;33
0-0-13-158000;-17
0-0-13-160000;-80
0-0-13-162000;-122
0-0-13-164000;-155
0-0-13-166000;-150
0-0-13-167000;-139
0-0-13-169000;-92
0-0-13-171000;-55
0-0-13-173000;13
0-0-13-175000;22
0-0-13-177000;23
0-0-13-179000;18
0-0-13-181000;38
0-0-13-183000;58
0-0-13-185000;90
0-0-13-188000;98
0-0-13-190000;156
0-0-13-192000;190
0-0-13-194000;210
0-0-13-196000;189
0-0-13-198000;160
0-0-13-200000;118
0-0-13-202000;64
0-0-13-204000;58
0-0-13-206000;50
0-0-13-208000;70
0-0-13-209000;91
0-0-13-211000;147
0-0-13-224000;30
0-0-13-226000;33
0-0-13-228000;46
0-0-13-230000;88
0-0-13-232000;135
0-0-13-234000;138
0-0-13-236000;135
0-0-13-238000;101
0-0-13-240000;67
0-0-13-242000;12
0-0-13-244000;17
0-0-13-246000;37
0-0-13-249000;74
0-0-13-251000;125
0-0-13-253000;142
0-0-13-256000;137
0-0-13-258000;128
0-0-13-260000;56
0-0-13-262000;25
0-0-13-264000;6
0-0-13-266000;33
0-0-13-268000;56
0-0-13-270000;80
0-0-13-272000;111
0-0-13-274000;146
0-0-13-276000;125
0-0-13-278000;110
0-0-13-280000;51
0-0-13-282000;6
0-0-13-284000;8
0-0-13-286000;10
0-0-13-288000;28
0-0-13-291000;88
0-0-13-292000;113
0-0-13-294000;127
0-0-13-296000;130
0-0-13-298000;86
0-0-13-300000;50
0-0-13-302000;8
0-0-13-304000;6
0-0-13-306000;-4
0-0-13-308000;36
0-0-13-310000;77
0-0-13-312000;135
0-0-13-314000;134
0-0-13-316000;98
0-0-13-318000;69
0-0-13-320000;30
0-0-13-322000;18
0-0-13-324000;-4
0-0-13-327000;-12
0-0-13-329000;32
0-0-13-331000;71
0-0-13-333000;116
0-0-13-334000;100
0-0-13-336000;104
0-0-13-338000;57
0-0-13-340000;28
0-0-13-342000;12
0-0-13-344000;-2
0-0-13-346000;3
0-0-13-348000;38
0-0-13-350000;91
0-0-13-352000;108
0-0-13-354000;119
0-0-13-356000;98
0-0-13-358000;59
0-0-13-361000;37
0-0-13-363000;18
0-0-13-365000;-2
0-0-13-367000;-2
0-0-13-369000;34
0-0-13-371000;80
0-0-13-373000;101
0-0-13-374000;131
0-0-13-376000;107
0-0-13-378000;70
0-0-13-380000;20
0-0-13-382000;-13
0-0-13-384000;8
0-0-13-386000;12
0-0-13-388000;68
0-0-13-390000;85
0-0-13-392000;137
0-0-13-395000;121
0-0-13-397000;126
0-0-13-399000;62
0-0-13-401000;44
0-0-13-403000;14
0-0-13-405000;-5
0-0-13-407000;20
0-0-13-409000;78
0-0-13-411000;105
0-0-13-413000;145
0-0-13-415000;137
0-0-13-416000;138
0-0-13-418000;80
0-0-13-420000;49
0-0-13-422000;30
0-0-13-424000;24
0-0-13-437000;119
0-0-13-439000;93
0-0-13-441000;47
0-0-13-443000;42
0-0-13-445000;32
0-0-13-447000;27
0-0-13-449000;63
0-0-13-451000;103
0-0-13-453000;140
0-0-13-455000;146
0-0-13-457000;129
0-0-13-458000;87
0-0-13-460000;48
0-0-13-463000;28
0-0-13-465000;22
0-0-13-467000;39
0-0-13-469000;61
0-0-13-471000;114
0-0-13-473000;161
0-0-13-475000;135
0-0-13-477000;123
0-0-13-479000;76
0-0-13-481000;54
0-0-13-483000;10
0-0-13-485000;8
0-0-13-487000;28
0-0-13-489000;53
0-0-13-491000;117
0-0-13-493000;158
0-0-13-495000;134
0-0-13-498000;110
0-0-13-499000;68
0-0-13-501000;46
0-0-13-503000;-6
0-0-13-505000;9
0-0-13-507000;44
0-0-13-509000;77
0-0-13-511000;111
0-0-13-513000;146
0-0-13-515000;138
0-0-13-517000;112
0-0-13-519000;67
0-0-13-521000;22
0-0-13-523000;6
0-0-13-525000;24
0-0-13-527000;49
0-0-13-529000;72
0-0-13-531000;111
0-0-13-534000;139
0-0-13-536000;139
0-0-13-538000;105
0-0-13-540000;80
0-0-13-541000;23
0-0-13-543000;13
0-0-13-545000;23
0-0-13-547000;55
0-0-13-549000;59
0-0-13-551000;106
0-0-13-553000;134
0-0-13-555000;122
0-0-13-557000;109
0-0-13-559000;67
0-0-13-561000;24
0-0-13-563000;10
0-0-13-565000;8
0-0-13-568000;50
0-0-13-570000;70
0-0-13-572000;105
0-0-13-574000;144
0-0-13-576000;149
0-0-13-578000;98
0-0-13-580000;38
0-0-13-582000;25
0-0-13-583000;-6
0-0-13-585000;15
0-0-13-587000;24
0-0-13-589000;73
0-0-13-591000;118
0-0-13-593000;144
0-0-13-595000;116
0-0-13-597000;112
0-0-13-599000;42
0-0-13-602000;31
0-0-13-604000;26
0-0-13-606000;14
0-0-13-608000;51
0-0-13-610000;77
0-0-13-612000;136
0-0-13-614000;158
0-0-13-616000;126
0-0-13-618000;107
0-0-13-620000;67
0-0-13-622000;34
0-0-13-624000;25
0-0-13-625000;13
0-0-13-627000;40
0-0-13-629000;90
0-0-13-631000;141
0-0-13-633000;134
0-0-13-636000;129
0-0-13-648000;47
0-0-13-650000;94
0-0-13-652000;124
0-0-13-654000;145
0-0-13-656000;129
0-0-13-658000;113
0-0-13-660000;38
0-0-13-662000;7
0-0-13-664000;19
0-0-13-666000;4
0-0-13-667000;45
0-0-13-670000;74
0-0-13-672000;108
0-0-13-676000;144
0-0-13-678000;109
0-0-13-680000;39
0-0-13-682000;8
0-0-13-684000;9
0-0-13-686000;25
0-0-13-688000;51
0-0-13-690000;82
0-0-13-692000;124
0-0-13-694000;148
0-0-13-696000;142
0-0-13-698000;91
0-0-13-700000;35
0-0-13-702000;22
0-0-13-705000;26
0-0-13-707000;18
0-0-13-708000;49
0-0-13-710000;80
0-0-13-712000;123
0-0-13-714000;130
0-0-13-716000;122
0-0-13-718000;54
0-0-13-720000;52
0-0-13-722000;17
0-0-13-724000;-3
0-0-13-726000;-8
0-0-13-728000;37
0-0-13-730000;80
0-0-13-732000;119
0-0-13-734000;146
0-0-13-736000;100
0-0-13-738000;68
0-0-13-741000;36
0-0-13-743000;23
0-0-13-745000;-11
0-0-13-747000;-10
0-0-13-749000;36
0-0-13-750000;90
0-0-13-752000;107
0-0-13-754000;126
0-0-13-756000;87
0-0-13-758000;56
0-0-13-760000;27
0-0-13-762000;19
0-0-13-764000;-24
0-0-13-766000;26
0-0-13-768000;42
0-0-13-770000;108
0-0-13-772000;121
0-0-13-775000;118
0-0-13-777000;99
0-0-13-779000;73
0-0-13-781000;39
0-0-13-783000;-3
0-0-13-785000;21
0-0-13-787000;12
0-0-13-789000;63
0-0-13-791000;96
0-0-13-792000;133
0-0-13-794000;141
0-0-13-796000;123
0-0-13-798000;83
0-0-13-800000;52
0-0-13-802000;-2
0-0-13-804000;1
0-0-13-806000;21
0-0-13-809000;58
0-0-13-811000;84
0-0-13-813000;128
0-0-13-815000;137
0-0-13-817000;129
0-0-13-819000;78
0-0-13-821000;41
0-0-13-823000;5
0-0-13-825000;24
0-0-13-827000;25
0-0-13-829000;63
0-0-13-831000;104
0-0-13-833000;138
0-0-13-834000;143
0-0-13-836000;116
0-0-13-838000;80
0-0-13-840000;32
0-0-13-843000;25
0-0-13-845000;11
0-0-13-847000;41
0-0-13-849000;60
0-0-13-861000;44
0-0-13-863000;17
0-0-13-865000;39
0-0-13-867000;44
0-0-13-869000;64
0-0-13-871000;121
0-0-13-873000;157
0-0-13-874000;155
0-0-13-877000;121
0-0-13-879000;70
0-0-13-881000;17
0-0-13-883000;-38
0-0-13-885000;-64
0-0-13-887000;-62
0-0-13-889000;-35
0-0-13-891000;-17
0-0-13-893000;-16
0-0-13-895000;-30
0-0-13-897000;-71
0-0-13-899000;-114
0-0-13-901000;-128
0-0-13-903000;-164
0-0-13-905000;-129
0-0-13-907000;-89
0-0-13-909000;-9
0-0-13-911000;77
0-0-13-914000;136
0-0-13-916000;200
0-0-13-917000;181
0-0-13-919000;172
0-0-13-921000;107
0-0-13-923000;95
0-0-13-925000;87
0-0-13-927000;97
0-0-13-929000;123
0-0-13-931000;180
0-0-13-933000;195
0-0-13-935000;175
0-0-13-937000;161
0-0-13-939000;104
0-0-13-941000;45
0-0-13-943000;45
0-0-13-945000;53
0-0-13-948000;76
0-0-13-950000;99
0-0-13-952000;129
0-0-13-954000;168
0-0-13-956000;162
0-0-13-958000;144
0-0-13-959000;82
0-0-13-961000;45
0-0-13-963000;33
0-0-13-965000;55
0-0-13-967000;53
0-0-13-969000;107
0-0-13-971000;145
0-0-13-973000;149
0-0-13-975000;164
0-0-13-977000;106
0-0-13-979000;79
0-0-13-982000;40
0-0-13-984000;19
0-0-13-986000;34
0-0-13-988000;26
0-0-13-990000;100
0-0-13-992000;126
0-0-13-994000;150
0-0-13-996000;156
0-0-13-998000;92
0-0-13-999000;52
0-0-14-001000;24
0-0-14-003000;27
0-0-14-005000;4
0-0-14-007000;64
0-0-14-009000;79
0-0-14-011000;136
0-0-14-013000;144
0-0-14-016000;128
0-0-14-018000;79
0-0-14-020000;41
0-0-14-022000;3
0-0-14-024000;18
0-0-14-026000;-7
0-0-14-028000;43
0-0-14-030000;72
0-0-14-032000;130
0-0-14-034000;145
0-0-14-036000;117
0-0-14-038000;90
0-0-14-040000;48
0-0-14-041000;37
0-0-14-043000;-9
0-0-14-045000;14
0-0-14-047000;31
0-0-14-050000;103
0-0-14-052000;118
0-0-14-054000;117
0-0-14-056000;131
0-0-14-058000;83
0-0-14-060000;15
0-0-14-072000;94
0-0-14-074000;118
0-0-14-076000;115
0-0-14-078000;54
0-0-14-080000;41
0-0-14-082000;-9
0-0-14-084000;-2
0-0-14-086000;-3
0-0-14-088000;44
0-0-14-090000;63
0-0-14-092000;103
0-0-14-094000;116
0-0-14-096000;127
0-0-14-098000;72
0-0-14-102000;-3
0-0-14-104000;-24
0-0-14-106000;-1
0-0-14-108000;47
0-0-14-110000;54
0-0-14-112000;104
0-0-14-114000;120
0-0-14-116000;120
0-0-14-118000;71
0-0-14-121000;20
0-0-14-123000;-11
0-0-14-124000;-19
0-0-14-126000;14
0-0-14-128000;41
0-0-14-130000;76
0-0-14-132000;109
0-0-14-134000;138
0-0-14-136000;98
0-0-14-138000;65
0-0-14-140000;32
0-0-14-142000;30
0-0-14-144000;12
0-0-14-146000;22
0-0-14-148000;38
0-0-14-150000;83
0-0-14-152000;137
0-0-14-155000;145
0-0-14-157000;125
0-0-14-159000;78
0-0-14-161000;48
0-0-14-163000;30
0-0-14-165000;14
0-0-14-166000;52
0-0-14-168000;52
0-0-14-170000;115
0-0-14-172000;161
0-0-14-174000;143
0-0-14-176000;120
0-0-14-178000;86
0-0-14-180000;67
0-0-14-182000;25
0-0-14-184000;17
0-0-14-186000;35
0-0-14-189000;72
0-0-14-191000;109
0-0-14-193000;149
0-0-14-195000;133
0-0-14-197000;130
0-0-14-199000;87
0-0-14-201000;69
0-0-14-203000;9
0-0-14-205000;10
0-0-14-207000;21
0-0-14-208000;73
0-0-14-210000;117
0-0-14-212000;158
0-0-14-214000;152
0-0-14-216000;118
0-0-14-218000;97
0-0-14-220000;25
0-0-14-223000;5
0-0-14-225000;5
0-0-14-227000;45
0-0-14-229000;61
0-0-14-231000;119
0-0-14-233000;140
0-0-14-235000;138
0-0-14-237000;112
0-0-14-239000;66
0-0-14-241000;14
0-0-14-243000;6
0-0-14-245000;9
0-0-14-247000;11
0-0-14-249000;45
0-0-14-250000;108
0-0-14-252000;129
0-0-14-254000;136
0-0-14-257000;109
0-0-14-259000;71
0-0-14-261000;32
0-0-14-263000;0
0-0-14-265000;15
0-0-14-267000;18
0-0-14-269000;58
0-0-14-271000;105
0-0-14-273000;150
0-0-14-285000;16
0-0-14-287000;11
0-0-14-289000;69
0-0-14-291000;118
0-0-14-293000;137
0-0-14-295000;117
0-0-14-297000;108
0-0-14-299000;70
0-0-14-301000;26
0-0-14-303000;35
0-0-14-305000;19
0-0-14-307000;28
0-0-14-309000;72
0-0-14-311000;120
0-0-14-313000;149
0-0-14-315000;146
0-0-14-317000;109
0-0-14-319000;63
0-0-14-321000;37
0-0-14-323000;6
0-0-14-325000;-7
0-0-14-328000;28
0-0-14-330000;95
0-0-14-332000;117
0-0-14-333000;136
0-0-14-335000;140
0-0-14-337000;115
0-0-14-339000;80
0-0-14-341000;30
0-0-14-343000;10
0-0-14-345000;-11
0-0-14-347000;50
0-0-14-349000;101
0-0-14-351000;104
0-0-14-353000;128
0-0-14-355000;127
0-0-14-357000;120
0-0-14-359000;55
0-0-14-362000;22
0-0-14-364000;24
0-0-14-366000;25
0-0-14-368000;37
0-0-14-370000;86
0-0-14-372000;98
0-0-14-374000;146
0-0-14-375000;143
0-0-14-377000;110
0-0-14-379000;35
0-0-14-381000;26
0-0-14-383000;10
0-0-14-385000;19
0-0-14-387000;30
0-0-14-389000;64
0-0-14-391000;119
0-0-14-393000;125
0-0-14-396000;137
0-0-14-398000;109
0-0-14-400000;41
0-0-14-402000;23
0-0-14-404000;19
0-0-14-406000;9
0-0-14-408000;49
0-0-14-410000;68
0-0-14-412000;127
0-0-14-414000;148
0-0-14-416000;128
0-0-14-417000;79
0-0-14-419000;37
0-0-14-421000;29
0-0-14-423000;7
0-0-14-425000;-4
0-0-14-427000;37
0-0-14-430000;78
0-0-14-432000;121
0-0-14-434000;140
0-0-14-436000;110
0-0-14-438000;82
0-0-14-440000;39
0-0-14-442000;29
0-0-14-444000;18
0-0-14-446000;15
0-0-14-448000;50
0-0-14-450000;103
0-0-14-452000;120
0-0-14-454000;125
0-0-14-456000;116
0-0-14-458000;95
0-0-14-459000;51
0-0-14-461000;16
0-0-14-464000;-19
0-0-14-466000;11
0-0-14-468000;55
0-0-14-470000;105
0-0-14-472000;107
0-0-14-474000;136
0-0-14-476000;119
0-0-14-478000;89
0-0-14-480000;64
0-0-14-482000;4
0-0-14-484000;6
0-0-14-494000;123
0-0-14-496000;115
0-0-14-498000;67
0-0-14-500000;25
0-0-14-502000;20
0-0-14-504000;3
0-0-14-506000;25
0-0-14-508000;53
0-0-14-510000;72
0-0-14-512000;124
0-0-14-514000;142
0-0-14-516000;113
0-0-14-518000;73
0-0-14-520000;23
0-0-14-522000;10
0-0-14-526000;24
0-0-14-528000;34
0-0-14-530000;97
0-0-14-532000;133
0-0-14-535000;153
0-0-14-537000;116
0-0-14-539000;68
0-0-14-541000;24
0-0-14-542000;0
0-0-14-544000;-1
0-0-14-546000;15
0-0-14-548000;39
0-0-14-550000;86
0-0-14-552000;129
0-0-14-554000;145
0-0-14-556000;94
0-0-14-558000;66
0-0-14-560000;36
0-0-14-562000;3
0-0-14-564000;16
0-0-14-566000;11
0-0-14-569000;41
0-0-14-571000;81
0-0-14-573000;141
0-0-14-575000;134
0-0-14-577000;123
0-0-14-579000;87
0-0-14-581000;48
0-0-14-583000;3
0-0-14-584000;16
0-0-14-586000;15
0-0-14-588000;67
0-0-14-590000;108
0-0-14-592000;152
0-0-14-594000;126
0-0-14-596000;131
0-0-14-598000;88
0-0-14-600000;60
0-0-14-603000;29
0-0-14-605000;22
0-0-14-607000;35
0-0-14-609000;65
0-0-14-611000;122
0-0-14-613000;136
0-0-14-615000;161
0-0-14-617000;115
0-0-14-619000;85
0-0-14-621000;25
0-0-14-623000;5
0-0-14-624000;16
0-0-14-626000;38
0-0-14-628000;52
0-0-14-630000;117
0-0-14-632000;134
0-0-14-634000;138
0-0-14-637000;113
0-0-14-639000;73
0-0-14-641000;28
0-0-14-643000;27
0-0-14-645000;19
0-0-14-647000;43
0-0-14-649000;70
0-0-14-651000;107
0-0-14-653000;127
0-0-14-655000;134
0-0-14-657000;128
0-0-14-659000;64
0-0-14-661000;29
0-0-14-663000;16
0-0-14-665000;16
0-0-14-666000;26
0-0-14-668000;65
0-0-14-671000;117
0-0-14-673000;137
0-0-14-675000;167
0-0-14-677000;132
0-0-14-679000;51
0-0-14-681000;12
0-0-14-683000;-20
0-0-14-685000;-11
0-0-14-687000;-39
0-0-14-689000;0
0-0-14-691000;22
0-0-14-693000;17
0-0-14-695000;-6
0-0-14-708000;-138
0-0-14-709000;-66
0-0-14-711000;19
0-0-14-713000;64
0-0-14-715000;110
0-0-14-717000;111
0-0-14-719000;124
0-0-14-721000;104
0-0-14-723000;107
0-0-14-725000;93
0-0-14-727000;122
0-0-14-729000;141
0-0-14-731000;196
0-0-14-733000;183
0-0-14-735000;191
0-0-14-737000;150
0-0-14-739000;91
0-0-14-742000;76
0-0-14-744000;30
0-0-14-746000;45
0-0-14-748000;70
0-0-14-749000;131
0-0-14-751000;138
0-0-14-753000;171
0-0-14-755000;156
0-0-14-757000;135
0-0-14-759000;72
0-0-14-761000;67
0-0-14-763000;34
0-0-14-765000;43
0-0-14-767000;63
0-0-14-769000;104
0-0-14-771000;125
0-0-14-773000;158
0-0-14-776000;146
0-0-14-778000;117
0-0-14-780000;77
0-0-14-782000;31
0-0-14-784000;13
0-0-14-786000;21
0-0-14-788000;68
0-0-14-790000;83
0-0-14-791000;121
0-0-14-793000;133
0-0-14-795000;146
0-0-14-797000;97
0-0-14-799000;54
0-0-14-801000;23
0-0-14-803000;13
0-0-14-805000;26
0-0-14-807000;27
0-0-14-810000;78
0-0-14-812000;127
0-0-14-814000;152
0-0-14-816000;139
0-0-14-818000;87
0-0-14-820000;35
0-0-14-822000;17
0-0-14-824000;9
0-0-14-826000;19
0-0-14-828000;41
0-0-14-830000;100
0-0-14-832000;112
0-0-14-833000;144
0-0-14-835000;113
0-0-14-837000;88
0-0-14-839000;48
0-0-14-841000;32
0-0-14-844000;-6
0-0-14-846000;15
0-0-14-848000;45
0-0-14-850000;87
0-0-14-852000;113
0-0-14-854000;135
0-0-14-856000;107
0-0-14-858000;74
0-0-14-860000;53
0-0-14-862000;9
0-0-14-864000;-7
0-0-14-866000;11
0-0-14-868000;30
0-0-14-870000;82
0-0-14-872000;119
0-0-14-874000;122
0-0-14-875000;98
0-0-14-878000;77
0-0-14-880000;43
0-0-14-882000;-4
0-0-14-884000;-15
0-0-14-886000;0
0-0-14-888000;32
0-0-14-890000;76
0-0-14-892000;111
0-0-14-894000;114
0-0-14-896000;112
0-0-14-898000;69
0-0-14-900000;31
0-0-14-902000;-25
0-0-14-904000;-13
0-0-14-906000;1
0-0-14-918000;93
0-0-14-920000;19
0-0-14-922000;3
0-0-14-924000;-12
0-0-14-926000;17
0-0-14-928000;50
0-0-14-930000;80
0-0-14-932000;133
0-0-14-934000;120
0-0-14-936000;101
0-0-14-938000;71
0-0-14-940000;16
0-0-14-942000;12
0-0-14-944000;17
0-0-14-946000;32
0-0-14-949000;48
0-0-14-953000;141
0-0-14-955000;144
0-0-14-957000;114
0-0-14-958000;95
0-0-14-960000;34
0-0-14-962000;27
0-0-14-964000;47
0-0-14-966000;29
0-0-14-968000;57
0-0-14-970000;108
0-0-14-972000;143
0-0-14-974000;149
0-0-14-976000;148
0-0-14-978000;77
0-0-14-980000;44
0-0-14-983000;26
0-0-14-985000;48
0-0-14-987000;27
0-0-14-989000;68
0-0-14-991000;113
0-0-14-993000;159
0-0-14-995000;141
0-0-14-997000;107
0-0-14-999000;80
0-0-15-000000;38
0-0-15-002000;43
0-0-15-004000;17
0-0-15-006000;31
0-0-15-008000;71
0-0-15-010000;126
0-0-15-012000;152
0-0-15-014000;140
0-0-15-017000;109
0-0-15-019000;83
0-0-15-021000;44
0-0-15-023000;26
0-0-15-025000;11
0-0-15-027000;25
0-0-15-029000;60
0-0-15-031000;118
0-0-15-033000;125
0-0-15-035000;140
0-0-15-037000;114
0-0-15-039000;86
0-0-15-041000;27
0-0-15-042000;9
0-0-15-044000;3
0-0-15-046000;35
0-0-15-048000;89
0-0-15-051000;121
0-0-15-053000;141
0-0-15-055000;151
0-0-15-057000;133
0-0-15-059000;73
0-0-15-061000;24
0-0-15-063000;14
0-0-15-065000;-8
0-0-15-067000;31
0-0-15-069000;84
0-0-15-071000;108
0-0-15-073000;149
0-0-15-075000;149
0-0-15-077000;129
0-0-15-079000;53
0-0-15-081000;32
0-0-15-083000;10
0-0-15-085000;16
0-0-15-087000;46
0-0-15-089000;73
0-0-15-091000;103
0-0-15-093000;141
0-0-15-095000;154
0-0-15-097000;104
0-0-15-099000;54
0-0-15-101000;21
0-0-15-103000;37
0-0-15-105000;23
0-0-15-107000;37
0-0-15-109000;77
0-0-15-111000;136
0-0-15-113000;160
0-0-15-115000;158
0-0-15-117000;109
0-0-15-119000;74
0-0-15-131000;123
0-0-15-133000;163
0-0-15-135000;146
0-0-15-137000;111
0-0-15-139000;49
0-0-15-141000;34
0-0-15-143000;1
0-0-15-145000;-4
0-0-15-147000;35
0-0-15-149000;94
0-0-15-151000;122
0-0-15-153000;132
0-0-15-156000;114
0-0-15-158000;113
0-0-15-160000;57
0-0-15-162000;23
0-0-15-164000;16
0-0-15-166000;23
0-0-15-167000;52
0-0-15-169000;97
0-0-15-171000;118
0-0-15-173000;139
0-0-15-175000;130
0-0-15-177000;97
0-0-15-179000;69
0-0-15-181000;16
0-0-15-183000;25
0-0-15-185000;29
0-0-15-187000;60
0-0-15-190000;68
0-0-15-192000;139
0-0-15-194000;139
0-0-15-196000;127
0-0-15-198000;83
0-0-15-200000;62
0-0-15-202000;7
0-0-15-204000;24
0-0-15-206000;17
0-0-15-208000;72
0-0-15-209000;85
0-0-15-211000;121
0-0-15-213000;153
0-0-15-215000;129
0-0-15-217000;96
0-0-15-219000;39
0-0-15-221000;17
0-0-15-224000;12
0-0-15-226000;24
0-0-15-228000;21
0-0-15-230000;80
0-0-15-232000;111
0-0-15-234000;159
0-0-15-236000;98
0-0-15-238000;82
0-0-15-240000;33
0-0-15-242000;3
0-0-15-244000;1
0-0-15-246000;29
0-0-15-248000;25
0-0-15-249000;97
0-0-15-251000;109
0-0-15-253000;148
0-0-15-255000;102
0-0-15-258000;75
0-0-15-260000;37
0-0-15-262000;10
0-0-15-264000;0
0-0-15-266000;9
0-0-15-268000;24
0-0-15-270000;73
0-0-15-272000;111
0-0-15-274000;114
0-0-15-276000;106
0-0-15-278000;81
0-0-15-280000;38
0-0-15-282000;12
0-0-15-284000;15
0-0-15-286000;-13
0-0-15-288000;51
0-0-15-290000;76
0-0-15-291000;139
0-0-15-294000;128
0-0-15-296000;119
0-0-15-298000;88
0-0-15-300000;49
0-0-15-302000;-1
0-0-15-304000;13
0-0-15-306000;13
0-0-15-308000;31
0-0-15-310000;112
0-0-15-312000;115
0-0-15-314000;153
0-0-15-316000;117
0-0-15-318000;85
0-0-15-320000;25
0-0-15-322000;3
0-0-15-324000;4
0-0-15-326000;21
0-0-15-329000;50
0-0-15-331000;107
0-0-15-342000;19
0-0-15-344000;2
0-0-15-346000;47
0-0-15-348000;60
0-0-15-350000;105
0-0-15-352000;128
0-0-15-354000;137
0-0-15-356000;125
0-0-15-358000;53
0-0-15-360000;22
0-0-15-363000;10
0-0-15-365000;15
0-0-15-367000;15
0-0-15-369000;60
0-0-15-371000;94
0-0-15-373000;133
0-0-15-374000;122
0-0-15-378000;59
0-0-15-380000;26
0-0-15-382000;3
0-0-15-384000;0
0-0-15-386000;-2
0-0-15-388000;42
0-0-15-390000;92
0-0-15-392000;130
0-0-15-394000;144
0-0-15-397000;109
0-0-15-399000;49
0-0-15-401000;3
0-0-15-403000;13
0-0-15-405000;3
0-0-15-407000;18
0-0-15-409000;59
0-0-15-411000;98
0-0-15-413000;127
0-0-15-415000;135
0-0-15-416000;111
0-0-15-418000;65
0-0-15-420000;29
0-0-15-422000;36
0-0-15-424000;0
0-0-15-426000;23
0-0-15-428000;82
0-0-15-431000;123
0-0-15-433000;133
0-0-15-435000;136
0-0-15-437000;110
0-0-15-439000;66
0-0-15-441000;53
0-0-15-443000;10
0-0-15-445000;15
0-0-15-447000;33
0-0-15-449000;89
0-0-15-451000;121
0-0-15-453000;150
0-0-15-455000;144
0-0-15-457000;124
0-0-15-458000;56
0-0-15-460000;36
0-0-15-462000;18
0-0-15-465000;8
0-0-15-467000;38
0-0-15-469000;109
0-0-15-471000;112
0-0-15-473000;142
0-0-15-475000;138
0-0-15-477000;86
0-0-15-479000;78
0-0-15-481000;37
0-0-15-483000;-4
0-0-15-485000;20
0-0-15-487000;57
0-0-15-489000;62
0-0-15-491000;108
0-0-15-493000;148
0-0-15-495000;126
0-0-15-497000;96
0-0-15-499000;64
0-0-15-501000;30
0-0-15-503000;-4
0-0-15-505000;12
0-0-15-507000;52
0-0-15-509000;63
0-0-15-511000;122
0-0-15-513000;144
0-0-15-515000;164
0-0-15-517000;84
0-0-15-519000;35
0-0-15-521000;-4
0-0-15-523000;-33
0-0-15-525000;-53
0-0-15-527000;-41
0-0-15-529000;-50
0-0-15-531000;-31
0-0-15-533000;-7
0-0-15-536000;-40
0-0-15-538000;-92
0-0-15-540000;-129
0-0-15-541000;-140
0-0-15-543000;-176
0-0-15-555000;165
0-0-15-557000;182
0-0-15-559000;144
0-0-15-561000;110
0-0-15-563000;78
0-0-15-565000;86
0-0-15-567000;101
0-0-15-570000;148
0-0-15-572000;187
0-0-15-574000;179
0-0-15-576000;160
0-0-15-578000;117
0-0-15-580000;75
0-0-15-582000;58
0-0-15-583000;23
0-0-15-585000;34
0-0-15-587000;82
0-0-15-589000;108
0-0-15-591000;135
0-0-15-593000;176
0-0-15-595000;160
0-0-15-597000;125
0-0-15-599000;101
0-0-15-601000;33
0-0-15-604000;51
0-0-15-606000;50
0-0-15-608000;81
0-0-15-610000;94
0-0-15-612000;134
0-0-15-614000;147
0-0-15-616000;141
0-0-15-618000;133
0-0-15-620000;62
0-0-15-622000;31
0-0-15-624000;18
0-0-15-625000;36
0-0-15-627000;68
0-0-15-629000;104
0-0-15-631000;148
0-0-15-633000;147
0-0-15-635000;120
0-0-15-638000;101
0-0-15-640000;25
0-0-15-642000;22
0-0-15-644000;31
0-0-15-646000;34
0-0-15-648000;53
0-0-15-650000;86
0-0-15-652000;129
0-0-15-654000;147
0-0-15-656000;124
0-0-15-658000;81
0-0-15-660000;32
0-0-15-662000;28
0-0-15-664000;21
0-0-15-666000;10
0-0-15-667000;43
0-0-15-669000;102
0-0-15-672000;146
0-0-15-674000;142
0-0-15-676000;134
0-0-15-678000;69
0-0-15-680000;29
0-0-15-682000;9
0-0-15-684000;10
0-0-15-686000;19
0-0-15-688000;50
0-0-15-690000;103
0-0-15-692000;130
0-0-15-694000;114
0-0-15-696000;106
0-0-15-698000;73
0-0-15-700000;26
0-0-15-702000;8
0-0-15-704000;-18
0-0-15-706000;-7
0-0-15-708000;37
0-0-15-710000;99
0-0-15-712000;102
0-0-15-714000;124
0-0-15-716000;113
0-0-15-718000;79
0-0-15-720000;15
0-0-15-722000;-21
0-0-15-724000;-18
0-0-15-726000;-4
0-0-15-728000;39
0-0-15-730000;96
0-0-15-732000;110
0-0-15-734000;126
0-0-15-736000;102
0-0-15-738000;62
0-0-15-740000;12
0-0-15-743000;-12
0-0-15-745000;-14
0-0-15-747000;11
0-0-15-749000;55
0-0-15-750000;66
0-0-15-752000;116
0-0-15-754000;116
0-0-15-766000;6
0-0-15-768000;68
0-0-15-770000;76
0-0-15-772000;124
0-0-15-774000;142
0-0-15-777000;112
0-0-15-779000;60
0-0-15-781000;31
0-0-15-783000;6
0-0-15-785000;20
0-0-15-787000;26
0-0-15-789000;71
0-0-15-791000;106
0-0-15-792000;135
0-0-15-794000;151
0-0-15-796000;115
0-0-15-798000;72
0-0-15-800000;47
0-0-15-804000;24
0-0-15-806000;41
0-0-15-808000;68
0-0-15-811000;111
0-0-15-813000;151
0-0-15-815000;155
0-0-15-817000;111
0-0-15-819000;83
0-0-15-821000;46
0-0-15-823000;35
0-0-15-825000;27
0-0-15-827000;56
0-0-15-829000;81
0-0-15-831000;127
0-0-15-833000;166
0-0-15-834000;150
0-0-15-836000;115
0-0-15-838000;82
0-0-15-840000;53
0-0-15-842000;12
0-0-15-845000;13
0-0-15-847000;39
0-0-15-849000;83
0-0-15-851000;126
0-0-15-853000;147
0-0-15-855000;144
0-0-15-857000;122
0-0-15-859000;74
0-0-15-861000;47
0-0-15-863000;-2
0-0-15-865000;14
0-0-15-867000;40
0-0-15-869000;93
0-0-15-871000;97
0-0-15-873000;150
0-0-15-874000;124
0-0-15-876000;116
0-0-15-879000;64
0-0-15-881000;20
0-0-15-883000;9
0-0-15-885000;20
0-0-15-887000;27
0-0-15-889000;80
0-0-15-891000;108
0-0-15-893000;141
0-0-15-895000;145
0-0-15-897000;98
0-0-15-899000;71
0-0-15-901000;8
0-0-15-903000;2
0-0-15-905000;26
0-0-15-907000;51
0-0-15-909000;62
0-0-15-911000;119
0-0-15-913000;139
0-0-15-916000;147
0-0-15-917000;94
0-0-15-919000;43
0-0-15-921000;28
0-0-15-923000;9
0-0-15-925000;27
0-0-15-927000;33
0-0-15-929000;85
0-0-15-931000;119
0-0-15-933000;148
0-0-15-935000;121
0-0-15-937000;94
0-0-15-939000;63
0-0-15-941000;11
0-0-15-943000;22
0-0-15-945000;35
0-0-15-947000;25
0-0-15-950000;88
0-0-15-952000;133
0-0-15-954000;144
0-0-15-956000;118
0-0-15-958000;103
0-0-15-959000;56
0-0-15-961000;11
0-0-15-963000;18
0-0-15-965000;16
0-0-15-967000;59
0-0-15-979000;58
0-0-15-981000;18
0-0-15-984000;7
0-0-15-986000;17
0-0-15-988000;42
0-0-15-990000;96
0-0-15-992000;96
0-0-15-994000;121
0-0-15-996000;123
0-0-15-998000;92
0-0-15-999000;73
0-0-16-001000;8
0-0-16-003000;7
0-0-16-005000;11
0-0-16-007000;40
0-0-16-009000;110
0-0-16-011000;115
0-0-16-013000;139
0-0-16-015000;137
0-0-16-018000;86
0-0-16-020000;40
0-0-16-022000;19
0-0-16-024000;1
0-0-16-026000;34
0-0-16-028000;42
0-0-16-030000;89
0-0-16-032000;116
0-0-16-034000;129
0-0-16-036000;125
0-0-16-038000;96
0-0-16-040000;34
0-0-16-041000;16
0-0-16-043000;-1
0-0-16-045000;4
0-0-16-047000;69
0-0-16-049000;91
0-0-16-052000;126
0-0-16-054000;146
0-0-16-056000;161
0-0-16-058000;77
0-0-16-060000;43
0-0-16-062000;10
0-0-16-064000;10
0-0-16-066000;18
0-0-16-068000;51
0-0-16-070000;106
0-0-16-072000;121
0-0-16-074000;140
0-0-16-076000;127
0-0-16-078000;71
0-0-16-080000;35
0-0-16-082000;13
0-0-16-083000;17
0-0-16-085000;14
0-0-16-088000;45
0-0-16-090000;95
0-0-16-092000;132
0-0-16-094000;143
0-0-16-096000;118
0-0-16-098000;78
0-0-16-100000;22
0-0-16-102000;13
0-0-16-104000;-3
0-0-16-106000;35
0-0-16-108000;69
0-0-16-110000;110
0-0-16-112000;121
0-0-16-114000;130
0-0-16-116000;99
0-0-16-118000;76
0-0-16-120000;44
0-0-16-123000;18
0-0-16-124000;-3
0-0-16-126000;24
0-0-16-128000;58
0-0-16-130000;106
0-0-16-132000;131
0-0-16-134000;129
0-0-16-136000;110
0-0-16-138000;55
0-0-16-140000;39
0-0-16-142000;7
0-0-16-144000;11
0-0-16-146000;19
0-0-16-148000;70
0-0-16-150000;106
0-0-16-152000;127
0-0-16-154000;129
0-0-16-157000;119
0-0-16-159000;55
0-0-16-161000;25
0-0-16-163000;-13
0-0-16-165000;-2
0-0-16-166000;14
0-0-16-168000;61
0-0-16-170000;83
0-0-16-172000;113
0-0-16-174000;119
0-0-16-176000;117
0-0-16-178000;51
0-0-16-191000;108
0-0-16-193000;116
0-0-16-195000;139
0-0-16-197000;113
0-0-16-199000;31
0-0-16-201000;17
0-0-16-203000;-2
0-0-16-205000;-14
0-0-16-207000;43
0-0-16-208000;54
0-0-16-210000;100
0-0-16-212000;136
0-0-16-214000;141
0-0-16-216000;101
0-0-16-218000;57
0-0-16-220000;18
0-0-16-222000;14
0-0-16-225000;23
0-0-16-227000;18
0-0-16-231000;119
0-0-16-233000;155
0-0-16-235000;140
0-0-16-237000;111
0-0-16-239000;56
0-0-16-241000;57
0-0-16-243000;8
0-0-16-245000;23
0-0-16-247000;50
0-0-16-249000;78
0-0-16-250000;144
0-0-16-252000;153
0-0-16-254000;161
0-0-16-256000;119
0-0-16-259000;54
0-0-16-261000;40
0-0-16-263000;19
0-0-16-265000;9
0-0-16-267000;56
0-0-16-269000;76
0-0-16-271000;129
0-0-16-273000;141
0-0-16-275000;148
0-0-16-277000;107
0-0-16-279000;80
0-0-16-281000;26
0-0-16-283000;7
0-0-16-285000;19
0-0-16-287000;35
0-0-16-289000;90
0-0-16-291000;115
0-0-16-292000;126
0-0-16-295000;144
0-0-16-297000;96
0-0-16-299000;77
0-0-16-301000;37
0-0-16-303000;8
0-0-16-305000;27
0-0-16-307000;60
0-0-16-309000;70
0-0-16-311000;131
0-0-16-313000;161
0-0-16-315000;146
0-0-16-317000;131
0-0-16-319000;33
0-0-16-321000;15
0-0-16-323000;-26
0-0-16-325000;-21
0-0-16-327000;-29
0-0-16-330000;3
0-0-16-332000;27
0-0-16-333000;25
0-0-16-335000;-22
0-0-16-337000;-47
0-0-16-339000;-143
0-0-16-341000;-168
0-0-16-343000;-162
0-0-16-345000;-139
0-0-16-347000;-113
0-0-16-349000;-36
0-0-16-351000;36
0-0-16-353000;95
0-0-16-355000;113
0-0-16-357000;121
0-0-16-359000;114
0-0-16-361000;114
0-0-16-364000;115
0-0-16-366000;94
0-0-16-368000;108
0-0-16-370000;168
0-0-16-372000;183
0-0-16-374000;193
0-0-16-375000;175
0-0-16-377000;130
0-0-16-379000;94
0-0-16-381000;55
0-0-16-383000;59
0-0-16-385000;33
0-0-16-387000;78
0-0-16-389000;132
0-0-16-391000;176
0-0-16-402000;57
0-0-16-404000;33
0-0-16-406000;37
0-0-16-408000;76
0-0-16-410000;132
0-0-16-412000;137
0-0-16-414000;156
0-0-16-416000;138
0-0-16-417000;103
0-0-16-419000;52
0-0-16-421000;17
0-0-16-423000;-7
0-0-16-425000;20
0-0-16-427000;53
0-0-16-429000;117
0-0-16-432000;122
0-0-16-434000;125
0-0-16-436000;125
0-0-16-438000;98
0-0-16-440000;25
0-0-16-442000;23
0-0-16-444000;5
0-0-16-446000;23
0-0-16-448000;71
0-0-16-450000;97
0-0-16-452000;152
0-0-16-454000;149
0-0-16-456000;120
0-0-16-458000;73
0-0-16-459000;38
0-0-16-461000;5
0-0-16-463000;9
0-0-16-466000;33
0-0-16-468000;89
0-0-16-470000;86
0-0-16-472000;122
0-0-16-474000;139
0-0-16-476000;138
0-0-16-478000;67
0-0-16-480000;48
0-0-16-482000;5
0-0-16-484000;20
0-0-16-486000;14
0-0-16-488000;39
0-0-16-490000;100
0-0-16-492000;125
0-0-16-494000;146
0-0-16-496000;108
0-0-16-498000;73
0-0-16-499000;27
0-0-16-502000;40
0-0-16-504000;-9
0-0-16-506000;0
0-0-16-508000;64
0-0-16-510000;109
0-0-16-512000;118
0-0-16-514000;141
0-0-16-516000;88
0-0-16-518000;63
0-0-16-520000;27
0-0-16-522000;1
0-0-16-524000;-5
0-0-16-526000;3
0-0-16-528000;53
0-0-16-530000;100
0-0-16-532000;128
0-0-16-534000;116
0-0-16-537000;88
0-0-16-539000;49
0-0-16-541000;6
0-0-16-542000;-17
0-0-16-544000;-20
0-0-16-546000;20
0-0-16-548000;50
0-0-16-550000;83
0-0-16-552000;126
0-0-16-554000;127
0-0-16-556000;84
0-0-16-558000;46
0-0-16-560000;-2
0-0-16-562000;-6
0-0-16-564000;2
0-0-16-566000;15
0-0-16-568000;71
0-0-16-571000;80
0-0-16-573000;138
0-0-16-575000;139
0-0-16-577000;95
0-0-16-579000;79
0-0-16-581000;10
0-0-16-583000;-11
0-0-16-584000;29
0-0-16-586000;30
0-0-16-588000;90
0-0-16-590000;112
0-0-16-592000;137
0-0-16-594000;146
0-0-16-596000;113
0-0-16-598000;77
0-0-16-600000;25
0-0-16-773000;132
0-0-16-775000;129
0-0-16-778000;57
0-0-16-780000;41
0-0-16-782000;6
0-0-16-784000;12
0-0-16-786000;1
0-0-16-788000;50
0-0-16-790000;106
0-0-16-791000;150
0-0-16-793000;159
0-0-16-795000;114
0-0-16-797000;90
0-0-16-799000;33
0-0-16-801000;18
0-0-16-803000;-10
0-0-16-805000;30
0-0-16-807000;55
0-0-16-809000;112
0-0-16-812000;136
0-0-16-816000;135
0-0-16-818000;78
0-0-16-820000;41
0-0-16-822000;20
0-0-16-824000;22
0-0-16-826000;27
0-0-16-828000;74
0-0-16-830000;114
0-0-16-832000;135
0-0-16-833000;139
0-0-16-835000;133
0-0-16-837000;81
0-0-16-839000;52
0-0-16-841000;1
0-0-16-843000;5
0-0-16-846000;9
0-0-16-848000;83
0-0-16-850000;97
0-0-16-852000;159
0-0-16-854000;150
0-0-16-856000;138
0-0-16-858000;86
0-0-16-860000;28
0-0-16-862000;-10
0-0-16-864000;29
0-0-16-866000;29
0-0-16-868000;84
0-0-16-870000;95
0-0-16-872000;138
0-0-16-874000;151
0-0-16-875000;125
0-0-16-877000;74
0-0-16-879000;25
0-0-16-882000;7
0-0-16-884000;16
0-0-16-886000;44
0-0-16-888000;78
0-0-16-890000;101
0-0-16-892000;120
0-0-16-894000;138
0-0-16-896000;108
0-0-16-898000;60
0-0-16-900000;30
0-0-16-902000;10
0-0-16-904000;10
0-0-16-906000;43
0-0-16-908000;65
0-0-16-910000;120
0-0-16-912000;152
0-0-16-914000;150
0-0-16-916000;93
0-0-16-918000;72
0-0-16-920000;37
0-0-16-922000;34
0-0-16-924000;15
0-0-16-926000;45
0-0-16-928000;66
0-0-16-930000;116
0-0-16-932000;150
0-0-16-934000;115
0-0-16-936000;113
0-0-16-938000;81
0-0-16-940000;42
0-0-16-942000;-3
0-0-16-944000;10
0-0-16-946000;16
0-0-16-948000;61
0-0-16-951000;112
0-0-16-953000;153
0-0-16-955000;132
0-0-16-957000;106
0-0-16-958000;67
0-0-16-960000;50
0-0-16-962000;-9
0-0-16-964000;-5
0-0-16-966000;18
0-0-16-968000;60
0-0-16-970000;91
0-0-16-972000;114
0-0-16-974000;127
0-0-16-987000;33
0-0-16-989000;38
0-0-16-991000;110
0-0-16-993000;126
0-0-16-995000;116
0-0-16-997000;88
0-0-16-999000;59
0-0-17-000000;-6
0-0-17-002000;-36
0-0-17-004000;1
0-0-17-006000;39
0-0-17-008000;53
0-0-17-010000;134
0-0-17-012000;134
0-0-17-014000;138
0-0-17-016000;120
0-0-17-019000;41
0-0-17-021000;18
0-0-17-023000;4
0-0-17-025000;-3
0-0-17-027000;59
0-0-17-029000;84
0-0-17-031000;121
0-0-17-033000;168
0-0-17-035000;150
0-0-17-037000;121
0-0-17-039000;61
0-0-17-041000;43
0-0-17-042000;15
0-0-17-044000;27
0-0-17-046000;15
0-0-17-048000;66
0-0-17-050000;121
0-0-17-053000;166
0-0-17-055000;141
0-0-17-057000;104
0-0-17-059000;72
0-0-17-061000;27
0-0-17-063000;25
0-0-17-065000;8
0-0-17-067000;26
0-0-17-069000;68
0-0-17-071000;145
0-0-17-073000;157
0-0-17-075000;152
0-0-17-077000;127
0-0-17-079000;59
0-0-17-081000;15
0-0-17-083000;28
0-0-17-084000;21
0-0-17-086000;71
0-0-17-089000;82
0-0-17-091000;151
0-0-17-093000;125
0-0-17-095000;122
0-0-17-097000;92
0-0-17-099000;44
0-0-17-101000;30
0-0-17-103000;11
0-0-17-105000;8
0-0-17-107000;41
0-0-17-109000;101
0-0-17-111000;139
0-0-17-113000;154
0-0-17-115000;158
0-0-17-117000;112
0-0-17-119000;59
0-0-17-121000;34
0-0-17-124000;-19
0-0-17-125000;-4
0-0-17-127000;10
0-0-17-129000;24
0-0-17-131000;48
0-0-17-133000;51
0-0-17-135000;29
0-0-17-137000;-53
0-0-17-139000;-149
0-0-17-141000;-174
0-0-17-143000;-167
0-0-17-145000;-150
0-0-17-147000;-103
0-0-17-149000;-57
0-0-17-151000;24
0-0-17-153000;65
0-0-17-155000;103
0-0-17-158000;83
0-0-17-160000;90
0-0-17-162000;90
0-0-17-164000;109
0-0-17-166000;114
0-0-17-167000;128
0-0-17-169000;160
0-0-17-171000;212
0-0-17-173000;209
0-0-17-175000;214
0-0-17-177000;107
0-0-17-179000;69
0-0-17-181000;40
0-0-17-183000;68
0-0-17-185000;54
0-0-17-198000;128
0-0-17-200000;61
0-0-17-202000;67
0-0-17-204000;43
0-0-17-206000;46
0-0-17-208000;82
0-0-17-209000;127
0-0-17-211000;152
0-0-17-213000;167
0-0-17-215000;140
0-0-17-217000;94
0-0-17-219000;77
0-0-17-221000;52
0-0-17-223000;30
0-0-17-226000;37
0-0-17-228000;77
0-0-17-230000;106
0-0-17-232000;131
0-0-17-234000;151
0-0-17-236000;129
0-0-17-238000;82
0-0-17-242000;11
0-0-17-244000;1
0-0-17-246000;23
0-0-17-248000;77
0-0-17-249000;101
0-0-17-251000;140
0-0-17-253000;133
0-0-17-255000;117
0-0-17-257000;85
0-0-17-260000;41
0-0-17-262000;-6
0-0-17-264000;0
0-0-17-266000;18
0-0-17-268000;73
0-0-17-270000;80
0-0-17-272000;133
0-0-17-274000;133
0-0-17-276000;103
0-0-17-278000;72
0-0-17-280000;21
0-0-17-282000;-15
0-0-17-284000;-13
0-0-17-286000;31
0-0-17-288000;59
0-0-17-290000;115
0-0-17-291000;135
0-0-17-293000;145
0-0-17-296000;93
0-0-17-298000;59
0-0-17-300000;15
0-0-17-302000;3
0-0-17-304000;3
0-0-17-306000;15
0-0-17-308000;37
0-0-17-310000;110
0-0-17-312000;142
0-0-17-314000;136
0-0-17-316000;105
0-0-17-318000;38
0-0-17-320000;3
0-0-17-322000;-5
0-0-17-324000;7
0-0-17-326000;-12
0-0-17-328000;34
0-0-17-331000;91
0-0-17-333000;143
0-0-17-334000;125
0-0-17-336000;85
0-0-17-338000;46
0-0-17-340000;21
0-0-17-342000;-19
0-0-17-344000;4
0-0-17-346000;-10
0-0-17-348000;51
0-0-17-350000;106
0-0-17-352000;151
0-0-17-354000;105
0-0-17-356000;86
0-0-17-358000;53
0-0-17-360000;7
0-0-17-362000;-22
0-0-17-365000;-2
0-0-17-367000;17
0-0-17-369000;61
0-0-17-371000;118
0-0-17-373000;151
0-0-17-374000;127
0-0-17-376000;93
0-0-17-378000;60
0-0-17-380000;13
0-0-17-382000;12
0-0-17-384000;11
0-0-17-386000;36
0-0-17-388000;81
0-0-17-390000;134
0-0-17-392000;116
0-0-17-394000;113
0-0-17-396000;93
0-0-17-399000;83
0-0-17-411000;148
0-0-17-413000;169
0-0-17-415000;157
0-0-17-416000;150
0-0-17-418000;83
0-0-17-420000;28
0-0-17-422000;19
0-0-17-424000;53
0-0-17-426000;59
0-0-17-428000;98
0-0-17-430000;128
0-0-17-433000;170
0-0-17-435000;153
0-0-17-437000;126
0-0-17-439000;74
0-0-17-441000;19
0-0-17-443000;21
0-0-17-445000;47
0-0-17-447000;34
0-0-17-449000;77
0-0-17-451000;121
0-0-17-453000;165
0-0-17-455000;153
0-0-17-457000;117
0-0-17-458000;50
0-0-17-460000;25
0-0-17-462000;24
0-0-17-464000;20
0-0-17-466000;40
0-0-17-469000;80
0-0-17-471000;130
0-0-17-473000;161
0-0-17-475000;148
0-0-17-477000;79
0-0-17-479000;41
0-0-17-481000;-2
0-0-17-483000;-1
0-0-17-485000;2
0-0-17-487000;37
0-0-17-489000;98
0-0-17-491000;136
0-0-17-493000;134
0-0-17-495000;123
0-0-17-497000;74
0-0-17-499000;39
0-0-17-500000;24
0-0-17-503000;-9
0-0-17-505000;30
0-0-17-507000;62
0-0-17-509000;116
0-0-17-511000;111
0-0-17-513000;141
0-0-17-515000;112
0-0-17-517000;63
0-0-17-519000;25
0-0-17-521000;18
0-0-17-523000;-35
0-0-17-525000;1
0-0-17-527000;47
0-0-17-529000;115
0-0-17-531000;120
0-0-17-533000;142
0-0-17-535000;129
0-0-17-538000;82
0-0-17-540000;28
0-0-17-541000;21
0-0-17-543000;-11
0-0-17-545000;5
0-0-17-547000;60
0-0-17-549000;82
0-0-17-551000;121
0-0-17-553000;131
0-0-17-555000;123
0-0-17-557000;91
0-0-17-559000;40
0-0-17-561000;-8
0-0-17-563000;2
0-0-17-565000;25
0-0-17-567000;60
0-0-17-569000;85
0-0-17-572000;119
0-0-17-574000;134
0-0-17-576000;133
0-0-17-578000;63
0-0-17-580000;31
0-0-17-582000;10
0-0-17-583000;16
0-0-17-585000;38
0-0-17-587000;51
0-0-17-589000;73
0-0-17-591000;131
0-0-17-593000;104
0-0-17-595000;66
0-0-17-597000;24
0-0-17-599000;11
0-0-17-601000;38
0-0-17-603000;12
0-0-17-606000;87
0-0-17-608000;77
0-0-17-610000;127
0-0-17-620000;40
0-0-17-622000;24
0-0-17-624000;-5
0-0-17-625000;10
0-0-17-627000;39
0-0-17-629000;106
0-0-17-631000;148
0-0-17-633000;162
0-0-17-635000;107
0-0-17-637000;59
0-0-17-640000;30
0-0-17-642000;9
0-0-17-644000;7
0-0-17-646000;29
0-0-17-648000;51
0-0-17-650000;113
0-0-17-652000;133
0-0-17-654000;85
0-0-17-656000;62
0-0-17-658000;30
0-0-17-660000;21
0-0-17-662000;-23
0-0-17-666000;1
0-0-17-667000;72
0-0-17-669000;117
0-0-17-671000;139
0-0-17-673000;151
0-0-17-676000;129
0-0-17-678000;78
0-0-17-680000;14
0-0-17-682000;-23
0-0-17-684000;-4
0-0-17-686000;48
0-0-17-688000;46
0-0-17-690000;117
0-0-17-692000;147
0-0-17-694000;156
0-0-17-696000;126
0-0-17-698000;62
0-0-17-700000;29
0-0-17-702000;8
0-0-17-704000;8
0-0-17-706000;37
0-0-17-708000;47
0-0-17-710000;114
0-0-17-712000;142
0-0-17-714000;117
0-0-17-716000;108
0-0-17-718000;47
0-0-17-720000;-9
0-0-17-722000;-20
0-0-17-724000;10
0-0-17-726000;27
0-0-17-728000;71
0-0-17-730000;122
0-0-17-732000;149
0-0-17-734000;140
0-0-17-736000;113
0-0-17-738000;51
0-0-17-740000;10
0-0-17-742000;-12
0-0-17-745000;-1
0-0-17-747000;-27
0-0-17-749000;42
0-0-17-750000;77
0-0-17-752000;128
0-0-17-754000;118
0-0-17-756000;111
0-0-17-758000;73
0-0-17-760000;38
0-0-17-762000;36
0-0-17-764000;20
0-0-17-766000;35
0-0-17-768000;80
0-0-17-770000;126
0-0-17-772000;123
0-0-17-774000;123
0-0-17-776000;113
0-0-17-779000;68
0-0-17-781000;44
0-0-17-783000;26
0-0-17-785000;-2
0-0-17-787000;14
0-0-17-789000;58
0-0-17-791000;124
0-0-17-792000;125
0-0-17-794000;110
0-0-17-796000;96
0-0-17-798000;59
0-0-17-800000;8
0-0-17-802000;5
0-0-17-804000;22
0-0-17-806000;37
0-0-17-808000;108
0-0-17-810000;113
0-0-17-813000;133
0-0-17-815000;109
0-0-17-817000;112
0-0-17-819000;45
0-0-17-821000;8
0-0-17-833000;127
0-0-17-834000;117
0-0-17-836000;112
0-0-17-838000;18
0-0-17-840000;2
0-0-17-842000;10
0-0-17-844000;40
0-0-17-847000;105
0-0-17-849000;140
0-0-17-851000;137
0-0-17-853000;155
0-0-17-855000;160
0-0-17-857000;86
0-0-17-859000;74
0-0-17-861000;50
0-0-17-863000;56
0-0-17-865000;49
0-0-17-867000;65
0-0-17-869000;115
0-0-17-871000;150
0-0-17-873000;156
0-0-17-874000;151
0-0-17-876000;62
0-0-17-878000;40
0-0-17-880000;-2
0-0-17-883000;30
0-0-17-885000;-3
0-0-17-887000;63
0-0-17-889000;114
0-0-17-891000;169
0-0-17-893000;176
0-0-17-895000;151
0-0-17-897000;101
0-0-17-899000;45
0-0-17-901000;31
0-0-17-903000;31
0-0-17-905000;26
0-0-17-907000;69
0-0-17-909000;130
0-0-17-911000;149
0-0-17-913000;169
0-0-17-915000;111
0-0-17-917000;51
0-0-17-919000;-11
0-0-17-921000;-29
0-0-17-923000;-97
0-0-17-925000;-114
0-0-17-927000;-73
0-0-17-929000;-20
0-0-17-931000;-26
0-0-17-933000;-43
0-0-17-935000;-40
0-0-17-937000;-88
0-0-17-939000;-129
0-0-17-941000;-195
0-0-17-943000;-151
0-0-17-945000;-38
0-0-17-947000;82
0-0-17-949000;165
0-0-17-952000;232
0-0-17-954000;236
0-0-17-956000;219
0-0-17-958000;181
0-0-17-959000;141
0-0-17-961000;91
0-0-17-963000;101
0-0-17-965000;98
0-0-17-967000;132
0-0-17-969000;133
0-0-17-971000;168
0-0-17-973000;172
0-0-17-975000;145
0-0-17-977000;117
0-0-17-979000;70
0-0-17-981000;64
0-0-17-983000;63
0-0-17-986000;86
0-0-17-988000;95
0-0-17-990000;145
0-0-17-992000;167
0-0-17-994000;179
0-0-17-996000;134
0-0-17-998000;70
0-0-17-999000;4
0-0-18-001000;6
0-0-18-003000;42
0-0-18-005000;65
0-0-18-007000;112
0-0-18-009000;156
0-0-18-011000;173
0-0-18-013000;191
0-0-18-015000;129
0-0-18-017000;107
0-0-18-020000;56
0-0-18-022000;38
0-0-18-024000;32
0-0-18-026000;11
0-0-18-028000;53
0-0-18-030000;90
0-0-18-032000;160
0-0-18-043000;9
0-0-18-045000;-7
0-0-18-047000;61
0-0-18-049000;93
0-0-18-051000;139
0-0-18-053000;113
0-0-18-056000;99
0-0-18-058000;74
0-0-18-060000;42
0-0-18-062000;2
0-0-18-064000;10
0-0-18-066000;14
0-0-18-068000;49
0-0-18-070000;104
0-0-18-072000;96
0-0-18-074000;119
0-0-18-076000;50
0-0-18-078000;61
0-0-18-080000;33
0-0-18-082000;31
0-0-18-083000;31
0-0-18-085000;36
0-0-18-087000;75
0-0-18-092000;128
0-0-18-094000;124
0-0-18-096000;83
0-0-18-098000;54
0-0-18-100000;-26
0-0-18-102000;-40
0-0-18-104000;-3
0-0-18-106000;32
0-0-18-108000;68
0-0-18-110000;109
0-0-18-112000;144
0-0-18-114000;134
0-0-18-116000;105
0-0-18-118000;47
0-0-18-120000;20
0-0-18-122000;8
0-0-18-124000;11
0-0-18-126000;29
0-0-18-128000;63
0-0-18-130000;81
0-0-18-132000;125
0-0-18-134000;105
0-0-18-136000;87
0-0-18-138000;30
0-0-18-140000;-6
0-0-18-142000;-7
0-0-18-144000;15
0-0-18-146000;8
0-0-18-148000;72
0-0-18-150000;121
0-0-18-152000;108
0-0-18-154000;127
0-0-18-156000;82
0-0-18-159000;30
0-0-18-161000;15
0-0-18-163000;11
0-0-18-165000;24
0-0-18-166000;28
0-0-18-168000;72
0-0-18-170000;121
0-0-18-172000;129
0-0-18-174000;135
0-0-18-176000;80
0-0-18-178000;37
0-0-18-180000;24
0-0-18-182000;23
0-0-18-184000;23
0-0-18-186000;45
0-0-18-188000;97
0-0-18-190000;154
0-0-18-193000;150
0-0-18-195000;144
0-0-18-197000;104
0-0-18-199000;69
0-0-18-201000;53
0-0-18-203000;36
0-0-18-205000;45
0-0-18-207000;57
0-0-18-208000;91
0-0-18-210000;131
0-0-18-212000;151
0-0-18-214000;137
0-0-18-216000;110
0-0-18-218000;69
0-0-18-220000;60
0-0-18-222000;20
0-0-18-224000;37
0-0-18-227000;57
0-0-18-229000;104
0-0-18-231000;142
0-0-18-233000;171
0-0-18-235000;131
0-0-18-237000;110
0-0-18-239000;72
0-0-18-241000;19
0-0-18-243000;13
0-0-18-245000;37
0-0-18-256000;83
0-0-18-258000;37
0-0-18-260000;14
0-0-18-263000;3
0-0-18-265000;30
0-0-18-267000;65
0-0-18-269000;94
0-0-18-271000;124
0-0-18-273000;142
0-0-18-275000;129
0-0-18-277000;74
0-0-18-279000;42
0-0-18-281000;12
0-0-18-283000;-23
0-0-18-285000;25
0-0-18-287000;31
0-0-18-289000;71
0-0-18-291000;109
0-0-18-292000;127
0-0-18-294000;106
0-0-18-297000;80
0-0-18-299000;45
0-0-18-301000;15
0-0-18-303000;-3
0-0-18-305000;10
0-0-18-307000;31
0-0-18-309000;75
0-0-18-311000;113
0-0-18-313000;92
0-0-18-315000;82
0-0-18-317000;59
0-0-18-319000;18
0-0-18-321000;10
0-0-18-323000;-5
0-0-18-325000;9
0-0-18-327000;33
0-0-18-329000;78
0-0-18-332000;101
0-0-18-333000;90
0-0-18-335000;88
0-0-18-337000;33
0-0-18-339000;38
0-0-18-341000;-28
0-0-18-343000;-29
0-0-18-345000;3
0-0-18-347000;30
0-0-18-349000;74
0-0-18-351000;114
0-0-18-353000;86
0-0-18-355000;89
0-0-18-357000;48
0-0-18-359000;14
0-0-18-361000;5
0-0-18-363000;-10
0-0-18-366000;15
0-0-18-368000;40
0-0-18-370000;79
0-0-18-372000;86
0-0-18-374000;101
0-0-18-375000;81
0-0-18-377000;64
0-0-18-379000;8
0-0-18-381000;-13
0-0-18-383000;-2
0-0-18-385000;31
0-0-18-387000;40
0-0-18-389000;91
0-0-18-391000;106
0-0-18-393000;148
0-0-18-395000;91
0-0-18-397000;44
0-0-18-400000;-12
0-0-18-402000;16
0-0-18-404000;-10
0-0-18-406000;48
0-0-18-408000;60
0-0-18-410000;113
0-0-18-412000;153
0-0-18-414000;154
0-0-18-416000;154
0-0-18-417000;95
0-0-18-419000;54
0-0-18-421000;33
0-0-18-423000;56
0-0-18-425000;56
0-0-18-427000;101
0-0-18-429000;137
0-0-18-431000;167
0-0-18-434000;138
0-0-18-436000;122
0-0-18-438000;63
0-0-18-440000;37
0-0-18-442000;45
0-0-18-444000;41
0-0-18-446000;60
0-0-18-448000;109
0-0-18-450000;140
0-0-18-452000;168
0-0-18-454000;143
0-0-18-456000;133
0-0-18-465000;50
0-0-18-467000;95
0-0-18-470000;114
0-0-18-472000;133
0-0-18-474000;132
0-0-18-476000;110
0-0-18-478000;41
0-0-18-480000;4
0-0-18-482000;5
0-0-18-484000;-7
0-0-18-486000;23
0-0-18-488000;69
0-0-18-490000;122
0-0-18-492000;98
0-0-18-494000;117
0-0-18-496000;63
0-0-18-498000;14
0-0-18-499000;-20
0-0-18-501000;-39
0-0-18-504000;-31
0-0-18-506000;12
0-0-18-508000;52
0-0-18-510000;64
0-0-18-512000;85
0-0-18-516000;63
0-0-18-518000;23
0-0-18-520000;-9
0-0-18-522000;-20
0-0-18-524000;-41
0-0-18-526000;-16
0-0-18-528000;38
0-0-18-530000;105
0-0-18-532000;110
0-0-18-534000;112
0-0-18-536000;86
0-0-18-539000;12
0-0-18-541000;0
0-0-18-542000;-3
0-0-18-544000;-7
0-0-18-546000;28
0-0-18-548000;47
0-0-18-550000;100
0-0-18-552000;117
0-0-18-554000;138
0-0-18-556000;81
0-0-18-558000;49
0-0-18-560000;13
0-0-18-562000;22
0-0-18-564000;12
0-0-18-566000;44
0-0-18-568000;65
0-0-18-570000;113
0-0-18-573000;116
0-0-18-575000;149
0-0-18-577000;107
0-0-18-579000;45
0-0-18-581000;23
0-0-18-583000;10
0-0-18-584000;-18
0-0-18-586000;24
0-0-18-588000;85
0-0-18-590000;151
0-0-18-592000;165
0-0-18-594000;151
0-0-18-596000;143
0-0-18-598000;100
0-0-18-600000;49
0-0-18-602000;33
0-0-18-604000;41
0-0-18-607000;71
0-0-18-609000;122
0-0-18-611000;154
0-0-18-613000;193
0-0-18-615000;166
0-0-18-617000;131
0-0-18-619000;88
0-0-18-621000;44
0-0-18-623000;40
0-0-18-624000;47
0-0-18-626000;69
0-0-18-628000;134
0-0-18-630000;173
0-0-18-632000;186
0-0-18-634000;170
0-0-18-636000;122
0-0-18-638000;79
0-0-18-641000;32
0-0-18-643000;17
0-0-18-645000;29
0-0-18-647000;76
0-0-18-649000;96
0-0-18-651000;119
0-0-18-653000;157
0-0-18-655000;134
0-0-18-657000;84
0-0-18-659000;42
0-0-18-661000;-47
0-0-18-663000;-62
0-0-18-665000;-50
0-0-18-666000;-31
0-0-18-679000;-156
0-0-18-681000;-185
0-0-18-683000;-166
0-0-18-685000;-116
0-0-18-687000;-71
0-0-18-689000;34
0-0-18-691000;103
0-0-18-693000;166
0-0-18-695000;179
0-0-18-697000;160
0-0-18-699000;117
0-0-18-701000;85
0-0-18-703000;97
0-0-18-705000;122
0-0-18-707000;111
0-0-18-708000;162
0-0-18-711000;200
0-0-18-713000;196
0-0-18-715000;158
0-0-18-717000;107
0-0-18-719000;51
0-0-18-721000;31
0-0-18-723000;61
0-0-18-725000;41
0-0-18-727000;101
0-0-18-729000;169
0-0-18-731000;187
0-0-18-733000;165
0-0-18-735000;155
0-0-18-737000;113
0-0-18-739000;66
0-0-18-741000;30
0-0-18-743000;56
0-0-18-746000;45
0-0-18-748000;98
0-0-18-749000;126
0-0-18-751000;178
0-0-18-753000;137
0-0-18-755000;120
0-0-18-757000;80
0-0-18-759000;38
0-0-18-761000;41
0-0-18-763000;45
0-0-18-765000;53
0-0-18-767000;96
0-0-18-769000;141
0-0-18-771000;151
0-0-18-773000;162
0-0-18-775000;136
0-0-18-777000;69
0-0-18-780000;31
0-0-18-782000;37
0-0-18-784000;42
0-0-18-786000;28
0-0-18-788000;86
0-0-18-790000;127
0-0-18-791000;134
0-0-18-793000;148
0-0-18-795000;95
0-0-18-797000;52
0-0-18-799000;11
0-0-18-801000;5
0-0-18-803000;8
0-0-18-805000;37
0-0-18-807000;81
0-0-18-809000;103
0-0-18-811000;149
0-0-18-814000;128
0-0-18-816000;116
0-0-18-818000;53
0-0-18-820000;39
0-0-18-822000;5
0-0-18-824000;5
0-0-18-826000;7
0-0-18-828000;41
0-0-18-830000;110
0-0-18-832000;132
0-0-18-833000;128
0-0-18-835000;129
0-0-18-837000;49
0-0-18-839000;24
0-0-18-841000;-6
0-0-18-843000;3
0-0-18-845000;3
0-0-18-847000;62
0-0-18-850000;102
0-0-18-852000;122
0-0-18-854000;124
0-0-18-856000;73
0-0-18-858000;43
0-0-18-860000;3
0-0-18-862000;9
0-0-18-864000;-28
0-0-18-866000;11
0-0-18-868000;52
0-0-18-870000;98
0-0-18-872000;107
0-0-18-874000;115
0-0-18-875000;63
0-0-18-877000;20
0-0-18-890000;99
0-0-18-892000;123
0-0-18-894000;119
0-0-18-896000;81
0-0-18-898000;50
0-0-18-900000;39
0-0-18-902000;-6
0-0-18-904000;-6
0-0-18-906000;22
0-0-18-908000;78
0-0-18-910000;86
0-0-18-912000;117
0-0-18-914000;131
0-0-18-916000;84
0-0-18-918000;45
0-0-18-920000;25
0-0-18-922000;-16
0-0-18-924000;9
0-0-18-926000;27
0-0-18-928000;112
0-0-18-930000;116
0-0-18-932000;145
0-0-18-934000;128
0-0-18-936000;101
0-0-18-938000;48
0-0-18-942000;17
0-0-18-944000;15
0-0-18-946000;61
0-0-18-948000;98
0-0-18-950000;131
0-0-18-953000;150
0-0-18-955000;155
0-0-18-957000;112
0-0-18-958000;73
0-0-18-960000;37
0-0-18-962000;20
0-0-18-964000;36
0-0-18-966000;67
0-0-18-968000;92
0-0-18-970000;140
0-0-18-972000;141
0-0-18-974000;147
0-0-18-976000;86
0-0-18-978000;47
0-0-18-980000;21
0-0-18-982000;11
0-0-18-984000;22
0-0-18-987000;57
0-0-18-989000;70
0-0-18-991000;110
0-0-18-993000;141
0-0-18-995000;115
0-0-18-997000;74
0-0-18-999000;40
0-0-19-000000;16
0-0-19-002000;-31
0-0-19-004000;11
0-0-19-006000;20
0-0-19-008000;74
0-0-19-010000;114
0-0-19-012000;155
0-0-19-014000;97
0-0-19-016000;98
0-0-19-018000;50
0-0-19-021000;21
0-0-19-023000;-1
0-0-19-025000;21
0-0-19-027000;27
0-0-19-029000;90
0-0-19-031000;141
0-0-19-033000;134
0-0-19-035000;119
0-0-19-037000;69
0-0-19-039000;48
0-0-19-041000;17
0-0-19-042000;7
0-0-19-044000;25
0-0-19-046000;64
0-0-19-048000;98
0-0-19-050000;137
0-0-19-052000;140
0-0-19-054000;130
0-0-19-057000;73
0-0-19-059000;40
0-0-19-061000;5
0-0-19-063000;1
0-0-19-065000;15
0-0-19-067000;57
0-0-19-069000;97
0-0-19-071000;122
0-0-19-073000;132
0-0-19-075000;121
0-0-19-077000;97
0-0-19-079000;38
0-0-19-081000;26
0-0-19-083000;25
0-0-19-084000;53
0-0-19-086000;63
0-0-19-088000;97
0-0-19-091000;120
0-0-19-103000;17
0-0-19-105000;36
0-0-19-107000;37
0-0-19-109000;113
0-0-19-111000;139
0-0-19-113000;121
0-0-19-115000;137
0-0-19-117000;63
0-0-19-119000;42
0-0-19-121000;25
0-0-19-123000;45
0-0-19-125000;36
0-0-19-127000;60
0-0-19-129000;103
0-0-19-131000;135
0-0-19-133000;139
0-0-19-135000;105
0-0-19-137000;76
0-0-19-139000;29
0-0-19-141000;8
0-0-19-143000;28
0-0-19-145000;66
0-0-19-147000;74
0-0-19-149000;118
0-0-19-151000;160
0-0-19-153000;128
0-0-19-155000;105
0-0-19-157000;87
0-0-19-160000;39
0-0-19-162000;31
0-0-19-164000;26
0-0-19-166000;57
0-0-19-167000;89
0-0-19-169000;100
0-0-19-171000;142
0-0-19-173000;126
0-0-19-175000;91
0-0-19-177000;80
0-0-19-179000;39
0-0-19-181000;33
0-0-19-183000;12
0-0-19-185000;34
0-0-19-187000;75
0-0-19-189000;137
0-0-19-191000;137
0-0-19-194000;147
0-0-19-196000;127
0-0-19-198000;69
0-0-19-200000;20
0-0-19-202000;18
0-0-19-204000;24
0-0-19-206000;48
0-0-19-208000;99
0-0-19-209000;110
0-0-19-211000;125
0-0-19-213000;142
0-0-19-215000;102
0-0-19-217000;33
0-0-19-219000;11
0-0-19-221000;7
0-0-19-223000;11
0-0-19-225000;48
0-0-19-228000;113
0-0-19-230000;119
0-0-19-232000;132
0-0-19-234000;123
0-0-19-236000;108
0-0-19-238000;36
0-0-19-240000;27
0-0-19-242000;-13
0-0-19-244000;-1
0-0-19-246000;56
0-0-19-248000;69
0-0-19-249000;115
0-0-19-251000;133
0-0-19-253000;167
0-0-19-255000;127
0-0-19-257000;56
0-0-19-259000;29
0-0-19-261000;44
0-0-19-264000;22
0-0-19-266000;54
0-0-19-268000;70
0-0-19-270000;117
0-0-19-272000;129
0-0-19-274000;152
0-0-19-276000;106
0-0-19-278000;90
0-0-19-280000;46
0-0-19-282000;71
0-0-19-284000;32
0-0-19-286000;70
0-0-19-288000;91
0-0-19-290000;150
0-0-19-291000;180
0-0-19-293000;154
0-0-19-295000;116
0-0-19-298000;77
0-0-19-300000;43
0-0-19-302000;-9
0-0-19-316000;111
0-0-19-318000;86
0-0-19-320000;73
0-0-19-322000;34
0-0-19-324000;42
0-0-19-326000;79
0-0-19-328000;123
0-0-19-330000;130
0-0-19-333000;123
0-0-19-334000;127
0-0-19-336000;84
0-0-19-338000;39
0-0-19-340000;26
0-0-19-342000;25
0-0-19-344000;21
0-0-19-346000;63
0-0-19-348000;84
0-0-19-350000;157
0-0-19-352000;199
0-0-19-354000;156
0-0-19-356000;101
0-0-19-358000;80
0-0-19-360000;50
0-0-19-362000;44
0-0-19-364000;30
0-0-19-367000;56
0-0-19-371000;140
0-0-19-373000;115
0-0-19-374000;59
0-0-19-376000;13
0-0-19-378000;-76
0-0-19-380000;-97
0-0-19-382000;-109
0-0-19-384000;-111
0-0-19-386000;-116
0-0-19-388000;-70
0-0-19-390000;-33
0-0-19-392000;5
0-0-19-394000;-15
0-0-19-396000;-32
0-0-19-398000;-45
0-0-19-401000;-37
0-0-19-403000;1
0-0-19-405000;77
0-0-19-407000;138
0-0-19-409000;172
0-0-19-411000;219
0-0-19-413000;226
0-0-19-415000;194
0-0-19-416000;147
0-0-19-418000;89
0-0-19-420000;88
0-0-19-422000;77
0-0-19-424000;46
0-0-19-426000;74
0-0-19-428000;95
0-0-19-430000;177
0-0-19-432000;185
0-0-19-434000;167
0-0-19-437000;107
0-0-19-439000;76
0-0-19-441000;43
0-0-19-443000;41
0-0-19-445000;16
0-0-19-447000;79
0-0-19-449000;124
0-0-19-451000;143
0-0-19-453000;119
0-0-19-455000;123
0-0-19-457000;78
0-0-19-458000;42
0-0-19-460000;16
0-0-19-462000;13
0-0-19-464000;47
0-0-19-466000;93
0-0-19-468000;142
0-0-19-471000;154
0-0-19-473000;110
0-0-19-475000;107
0-0-19-477000;92
0-0-19-479000;39
0-0-19-481000;10
0-0-19-483000;8
0-0-19-485000;35
0-0-19-487000;55
0-0-19-489000;101
0-0-19-491000;155
0-0-19-493000;160
0-0-19-495000;127
0-0-19-497000;136
0-0-19-499000;37
0-0-19-500000;9
0-0-19-502000;19
0-0-19-505000;24
0-0-19-507000;68
0-0-19-509000;97
0-0-19-511000;124
0-0-19-513000;148
0-0-19-515000;132
0-0-19-517000;106
0-0-19-527000;69
0-0-19-529000;91
0-0-19-531000;112
0-0-19-533000;148
0-0-19-535000;152
0-0-19-537000;87
0-0-19-540000;56
0-0-19-541000;34
0-0-19-543000;32
0-0-19-545000;43
0-0-19-547000;81
0-0-19-549000;106
0-0-19-551000;122
0-0-19-553000;156
0-0-19-555000;121
0-0-19-557000;51
0-0-19-559000;28
0-0-19-561000;41
0-0-19-563000;0
0-0-19-565000;23
0-0-19-567000;107
0-0-19-569000;143
0-0-19-571000;129
0-0-19-574000;128
0-0-19-576000;97
0-0-19-578000;48
0-0-19-580000;32
0-0-19-582000;42
0-0-19-583000;-3
0-0-19-585000;21
0-0-19-587000;50
0-0-19-589000;116
0-0-19-591000;95
0-0-19-593000;87
0-0-19-595000;63
0-0-19-597000;70
0-0-19-599000;30
0-0-19-601000;29
0-0-19-603000;9
0-0-19-605000;18
0-0-19-608000;80
0-0-19-610000;96
0-0-19-612000;107
0-0-19-614000;95
0-0-19-616000;81
0-0-19-618000;4
0-0-19-620000;15
0-0-19-622000;15
0-0-19-624000;21
0-0-19-625000;19
0-0-19-627000;61
0-0-19-629000;70
0-0-19-631000;104
0-0-19-633000;101
0-0-19-635000;92
0-0-19-637000;34
0-0-19-639000;-1
0-0-19-641000;-8
0-0-19-644000;16
0-0-19-646000;44
0-0-19-648000;27
0-0-19-650000;55
0-0-19-652000;64
0-0-19-654000;118
0-0-19-656000;139
0-0-19-658000;93
0-0-19-660000;40
0-0-19-662000;13
0-0-19-664000;17
0-0-19-666000;52
0-0-19-667000;86
0-0-19-669000;118
0-0-19-671000;138
0-0-19-673000;150
0-0-19-675000;92
0-0-19-678000;70
0-0-19-680000;43
0-0-19-682000;26
0-0-19-684000;55
0-0-19-686000;103
0-0-19-688000;147
0-0-19-690000;159
0-0-19-692000;194
0-0-19-694000;180
0-0-19-696000;139
0-0-19-698000;110
0-0-19-700000;106
0-0-19-702000;101
0-0-19-704000;94
0-0-19-706000;123
0-0-19-708000;129
0-0-19-709000;156
0-0-19-712000;183
0-0-19-714000;131
0-0-19-716000;90
0-0-19-718000;64
0-0-19-720000;50
0-0-19-722000;35
0-0-19-724000;61
0-0-19-726000;82
0-0-19-738000;80
0-0-19-740000;36
0-0-19-742000;28
0-0-19-744000;36
0-0-19-747000;60
0-0-19-749000;88
0-0-19-750000;145
0-0-19-752000;131
0-0-19-754000;110
0-0-19-756000;73
0-0-19-758000;39
0-0-19-760000;16
0-0-19-762000;21
0-0-19-764000;29
0-0-19-766000;63
0-0-19-768000;93
0-0-19-770000;109
0-0-19-772000;95
0-0-19-774000;84
0-0-19-776000;80
0-0-19-778000;74
0-0-19-781000;86
0-0-19-783000;14
0-0-19-785000;44
0-0-19-787000;64
0-0-19-789000;91
0-0-19-791000;138
0-0-19-794000;127
0-0-19-796000;129
0-0-19-798000;31
0-0-19-800000;12
0-0-19-802000;5
0-0-19-804000;34
0-0-19-806000;49
0-0-19-808000;86
0-0-19-810000;110
0-0-19-812000;107
0-0-19-815000;83
0-0-19-817000;67
0-0-19-819000;43
0-0-19-821000;0
0-0-19-823000;20
0-0-19-825000;-6
0-0-19-827000;7
0-0-19-829000;26
0-0-19-831000;91
0-0-19-833000;69
0-0-19-834000;70
0-0-19-836000;5
0-0-19-838000;4
0-0-19-840000;-19
0-0-19-842000;7
0-0-19-844000;-11
0-0-19-846000;32
0-0-19-848000;36
0-0-19-851000;73
0-0-19-853000;57
0-0-19-855000;110
0-0-19-857000;71
0-0-19-859000;53
0-0-19-861000;58
0-0-19-863000;26
0-0-19-865000;28
0-0-19-867000;37
0-0-19-869000;87
0-0-19-871000;89
0-0-19-873000;81
0-0-19-874000;57
0-0-19-876000;6
0-0-19-878000;-3
0-0-19-880000;-19
0-0-19-882000;6
0-0-19-885000;32
0-0-19-887000;34
0-0-19-889000;53
0-0-19-891000;59
0-0-19-893000;82
0-0-19-895000;80
0-0-19-897000;81
0-0-19-899000;15
0-0-19-901000;-1
0-0-19-903000;-9
0-0-19-905000;22
0-0-19-907000;77
0-0-19-909000;76
0-0-19-911000;90
0-0-19-913000;90
0-0-19-915000;81
0-0-19-916000;55
0-0-19-919000;34
0-0-19-921000;32
0-0-19-923000;40
0-0-19-925000;30
0-0-19-927000;72
0-0-19-929000;60
0-0-19-931000;70
0-0-19-933000;100
0-0-19-935000;143
0-0-19-937000;79
0-0-19-939000;41
0-0-19-951000;131
0-0-19-954000;147
0-0-19-956000;99
0-0-19-958000;71
0-0-19-959000;46
0-0-19-961000;50
0-0-19-963000;37
0-0-19-965000;55
0-0-19-967000;100
0-0-19-969000;127
0-0-19-971000;158
0-0-19-973000;155
0-0-19-975000;101
0-0-19-977000;74
0-0-19-979000;71
0-0-19-981000;43
0-0-19-983000;-15
0-0-19-985000;10
0-0-19-988000;92
0-0-19-990000;132
0-0-19-992000;119
0-0-19-994000;100
0-0-19-996000;96
0-0-19-998000;94
0-0-19-999000;83
0-0-20-001000;46
0-0-20-003000;39
0-0-20-005000;36
0-0-20-007000;47
0-0-20-009000;69
0-0-20-011000;74
0-0-20-013000;60
0-0-20-015000;56
0-0-20-017000;123
0-0-20-019000;98
0-0-20-022000;69
0-0-20-024000;58
0-0-20-026000;68
0-0-20-028000;107
0-0-20-030000;115
0-0-20-032000;101
0-0-20-034000;71
0-0-20-036000;55
0-0-20-038000;70
0-0-20-040000;35
0-0-20-041000;13
0-0-20-043000;40
0-0-20-045000;56
0-0-20-047000;78
0-0-20-049000;91
0-0-20-051000;85
0-0-20-053000;62
0-0-20-055000;7
0-0-20-058000;-41
0-0-20-060000;-122
0-0-20-062000;-130
0-0-20-064000;-144
0-0-20-066000;-116
0-0-20-068000;-108
0-0-20-070000;-72
0-0-20-072000;-44
0-0-20-074000;-19
0-0-20-076000;-31
0-0-20-078000;-31
0-0-20-080000;2
0-0-20-082000;45
0-0-20-083000;96
0-0-20-085000;111
0-0-20-087000;155
0-0-20-089000;196
0-0-20-092000;215
0-0-20-094000;162
0-0-20-096000;147
0-0-20-098000;108
0-0-20-100000;93
0-0-20-102000;63
0-0-20-104000;69
0-0-20-106000;84
0-0-20-108000;103
0-0-20-110000;163
0-0-20-112000;163
0-0-20-114000;142
0-0-20-116000;117
0-0-20-118000;83
0-0-20-120000;46
0-0-20-122000;57
0-0-20-124000;51
0-0-20-126000;55
0-0-20-128000;124
0-0-20-130000;204
0-0-20-132000;154
0-0-20-134000;146
0-0-20-136000;111
0-0-20-138000;87
0-0-20-140000;55
0-0-20-142000;65
0-0-20-144000;58
0-0-20-146000;104
0-0-20-148000;137
0-0-20-150000;163
0-0-20-163000;44
0-0-20-165000;30
0-0-20-166000;66
0-0-20-168000;114
0-0-20-170000;138
0-0-20-172000;149
0-0-20-174000;125
0-0-20-176000;114
0-0-20-178000;68
0-0-20-180000;40
0-0-20-182000;24
0-0-20-184000;46
0-0-20-186000;76
0-0-20-188000;108
0-0-20-190000;112
0-0-20-192000;128
0-0-20-195000;97
0-0-20-197000;22
0-0-20-199000;6
0-0-20-201000;-8
0-0-20-203000;23
0-0-20-205000;56
0-0-20-207000;76
0-0-20-208000;121
0-0-20-210000;139
0-0-20-212000;117
0-0-20-214000;115
0-0-20-216000;70
0-0-20-220000;18
0-0-20-222000;23
0-0-20-224000;33
0-0-20-226000;56
0-0-20-228000;79
0-0-20-231000;106
0-0-20-233000;110
0-0-20-235000;99
0-0-20-237000;28
0-0-20-239000;18
0-0-20-241000;2
0-0-20-243000;22
0-0-20-245000;-11
0-0-20-247000;21
0-0-20-249000;91
0-0-20-250000;107
0-0-20-252000;104
0-0-20-254000;58
0-0-20-256000;28
0-0-20-258000;11
0-0-20-260000;22
0-0-20-262000;-1
0-0-20-265000;16
0-0-20-267000;33
0-0-20-269000;78
0-0-20-271000;78
0-0-20-273000;68
0-0-20-275000;75
0-0-20-277000;17
0-0-20-279000;-4
0-0-20-281000;17
0-0-20-283000;3
0-0-20-285000;16
0-0-20-287000;56
0-0-20-289000;95
0-0-20-291000;99
0-0-20-292000;110
0-0-20-294000;107
0-0-20-296000;71
0-0-20-299000;49
0-0-20-301000;10
0-0-20-303000;11
0-0-20-305000;43
0-0-20-307000;79
0-0-20-309000;95
0-0-20-311000;140
0-0-20-313000;138
0-0-20-315000;98
0-0-20-317000;71
0-0-20-319000;70
0-0-20-321000;27
0-0-20-323000;49
0-0-20-325000;65
0-0-20-327000;100
0-0-20-329000;156
0-0-20-331000;156
0-0-20-333000;147
0-0-20-335000;142
0-0-20-337000;78
0-0-20-339000;63
0-0-20-341000;59
0-0-20-343000;47
0-0-20-345000;77
0-0-20-347000;91
0-0-20-349000;134
0-0-20-351000;166
0-0-20-353000;165
0-0-20-355000;133
0-0-20-357000;108
0-0-20-359000;87
0-0-20-361000;63
0-0-20-363000;66
0-0-20-375000;113
0-0-20-377000;76
0-0-20-379000;75
0-0-20-381000;43
0-0-20-383000;60
0-0-20-385000;57
0-0-20-387000;91
0-0-20-389000;111
0-0-20-391000;144
0-0-20-393000;117
0-0-20-395000;95
0-0-20-397000;75
0-0-20-399000;89
0-0-20-402000;55
0-0-20-404000;29
0-0-20-406000;47
0-0-20-408000;94
0-0-20-410000;110
0-0-20-412000;145
0-0-20-414000;112
0-0-20-416000;104
0-0-20-417000;70
0-0-20-419000;57
0-0-20-421000;25
0-0-20-423000;44
0-0-20-425000;57
0-0-20-427000;84
0-0-20-429000;103
0-0-20-431000;117
0-0-20-433000;107
0-0-20-435000;81
0-0-20-438000;66
0-0-20-440000;20
0-0-20-442000;24
0-0-20-444000;33
0-0-20-446000;63
0-0-20-448000;86
0-0-20-450000;133
0-0-20-452000;113
0-0-20-454000;114
0-0-20-456000;99
0-0-20-458000;72
0-0-20-459000;13
0-0-20-461000;18
0-0-20-463000;25
0-0-20-465000;46
0-0-20-467000;76
0-0-20-469000;94
0-0-20-472000;132
0-0-20-474000;123
0-0-20-476000;101
0-0-20-478000;43
0-0-20-480000;35
0-0-20-482000;40
0-0-20-484000;48
0-0-20-486000;68
0-0-20-488000;85
0-0-20-490000;125
0-0-20-492000;129
0-0-20-494000;137
0-0-20-496000;110
0-0-20-498000;34
0-0-20-499000;50
0-0-20-501000;23
0-0-20-503000;48
0-0-20-506000;40
0-0-20-508000;85
0-0-20-510000;113
0-0-20-512000;133
0-0-20-514000;119
0-0-20-516000;78
0-0-20-518000;29
0-0-20-520000;37
0-0-20-522000;44
0-0-20-524000;36
0-0-20-526000;61
0-0-20-528000;78
0-0-20-530000;92
0-0-20-532000;100
0-0-20-534000;112
0-0-20-536000;66
0-0-20-538000;27
0-0-20-541000;5
0-0-20-542000;36
0-0-20-544000;33
0-0-20-546000;44
0-0-20-548000;74
0-0-20-550000;118
0-0-20-552000;106
0-0-20-554000;109
0-0-20-556000;80
0-0-20-558000;44
0-0-20-560000;47
0-0-20-562000;16
0-0-20-564000;39
0-0-20-566000;47
0-0-20-568000;100
0-0-20-570000;118
0-0-20-572000;121
0-0-20-575000;86
0-0-20-584000;27
0-0-20-586000;56
0-0-20-588000;104
0-0-20-590000;108
0-0-20-592000;95
0-0-20-594000;96
0-0-20-596000;92
0-0-20-598000;64
0-0-20-600000;19
0-0-20-602000;31
0-0-20-604000;49
0-0-20-606000;88
0-0-20-609000;74
0-0-20-611000;119
0-0-20-613000;96
0-0-20-615000;108
0-0-20-617000;71
0-0-20-619000;31
0-0-20-621000;31
0-0-20-623000;34
0-0-20-624000;43
0-0-20-626000;66
0-0-20-628000;80
0-0-20-630000;111
0-0-20-632000;116
0-0-20-634000;80
0-0-20-636000;65
0-0-20-638000;71
0-0-20-640000;31
0-0-20-645000;53
0-0-20-647000;57
0-0-20-649000;88
0-0-20-651000;111
0-0-20-653000;140
0-0-20-655000;87
0-0-20-657000;53
0-0-20-659000;35
0-0-20-661000;30
0-0-20-663000;30
0-0-20-665000;53
0-0-20-666000;50
0-0-20-668000;88
0-0-20-670000;104
0-0-20-672000;117
0-0-20-674000;80
0-0-20-676000;75
0-0-20-679000;52
0-0-20-681000;45
0-0-20-683000;38
0-0-20-685000;50
0-0-20-687000;62
0-0-20-689000;93
0-0-20-691000;129
0-0-20-693000;89
0-0-20-695000;55
0-0-20-697000;13
0-0-20-699000;-36
0-0-20-701000;-62
0-0-20-703000;-74
0-0-20-705000;-76
0-0-20-707000;-64
0-0-20-708000;-72
0-0-20-710000;-50
0-0-20-713000;-48
0-0-20-715000;-65
0-0-20-717000;-77
0-0-20-719000;-69
0-0-20-721000;-79
0-0-20-723000;-24
0-0-20-725000;28
0-0-20-727000;103
0-0-20-729000;143
0-0-20-731000;197
0-0-20-733000;192
0-0-20-735000;195
0-0-20-737000;144
0-0-20-739000;106
0-0-20-741000;81
0-0-20-743000;71
0-0-20-745000;111
0-0-20-748000;102
0-0-20-749000;132
0-0-20-751000;146
0-0-20-753000;124
0-0-20-755000;110
0-0-20-757000;94
0-0-20-759000;45
0-0-20-761000;53
0-0-20-763000;44
0-0-20-765000;77
0-0-20-767000;82
0-0-20-769000;130
0-0-20-771000;152
0-0-20-773000;152
0-0-20-775000;91
0-0-20-777000;45
0-0-20-779000;34
0-0-20-782000;26
0-0-20-784000;58
0-0-20-786000;61
0-0-20-797000;57
0-0-20-799000;15
0-0-20-801000;28
0-0-20-803000;36
0-0-20-805000;29
0-0-20-807000;82
0-0-20-809000;111
0-0-20-811000;126
0-0-20-813000;94
0-0-20-816000;79
0-0-20-818000;37
0-0-20-820000;32
0-0-20-822000;40
0-0-20-824000;34
0-0-20-826000;46
0-0-20-828000;73
0-0-20-830000;128
0-0-20-832000;101
0-0-20-833000;111
0-0-20-835000;71
0-0-20-837000;66
0-0-20-839000;44
0-0-20-841000;31
0-0-20-843000;31
0-0-20-845000;35
0-0-20-847000;61
0-0-20-849000;106
0-0-20-852000;110
0-0-20-854000;107
0-0-20-856000;80
0-0-20-858000;38
0-0-20-860000;-7
0-0-20-862000;24
0-0-20-864000;21
0-0-20-866000;37
0-0-20-868000;96
0-0-20-870000;81
0-0-20-872000;102
0-0-20-874000;100
0-0-20-875000;69
0-0-20-877000;28
0-0-20-879000;27
0-0-20-881000;3
0-0-20-883000;5
0-0-20-886000;40
0-0-20-888000;83
0-0-20-890000;82
0-0-20-892000;92
0-0-20-894000;84
0-0-20-896000;65
0-0-20-898000;35
0-0-20-900000;11
0-0-20-902000;0
0-0-20-904000;16
0-0-20-906000;33
0-0-20-908000;81
0-0-20-910000;90
0-0-20-912000;91
0-0-20-914000;103
0-0-20-916000;64
0-0-20-917000;24
0-0-20-920000;7
0-0-20-922000;24
0-0-20-924000;19
0-0-20-926000;49
0-0-20-928000;75
0-0-20-930000;92
0-0-20-932000;114
0-0-20-934000;121
0-0-20-936000;50
0-0-20-938000;23
0-0-20-940000;5
0-0-20-942000;19
0-0-20-944000;35
0-0-20-946000;57
0-0-20-948000;88
0-0-20-950000;103
0-0-20-952000;126
0-0-20-955000;97
0-0-20-957000;74
0-0-20-958000;29
0-0-20-960000;30
0-0-20-962000;26
0-0-20-964000;35
0-0-20-966000;82
0-0-20-968000;116
0-0-20-970000;137
0-0-20-972000;139
0-0-20-974000;102
0-0-20-976000;73
0-0-20-978000;44
0-0-20-980000;43
0-0-20-982000;31
0-0-20-984000;69
0-0-20-986000;79
0-0-20-989000;127
0-0-20-991000;111
0-0-20-993000;149
0-0-20-995000;114
0-0-20-997000;77
0-0-21-008000;107
0-0-21-010000;131
0-0-21-012000;127
0-0-21-014000;114
0-0-21-016000;69
0-0-21-018000;75
0-0-21-020000;33
0-0-21-022000;24
0-0-21-025000;50
0-0-21-027000;111
0-0-21-029000;85
0-0-21-031000;121
0-0-21-033000;114
0-0-21-035000;122
0-0-21-037000;83
0-0-21-039000;32
0-0-21-041000;27
0-0-21-042000;42
0-0-21-044000;55
0-0-21-046000;71
0-0-21-048000;76
0-0-21-050000;105
0-0-21-052000;123
0-0-21-054000;85
0-0-21-056000;49
0-0-21-059000;16
0-0-21-061000;12
0-0-21-063000;10
0-0-21-065000;62
0-0-21-067000;62
0-0-21-071000;110
0-0-21-073000;144
0-0-21-075000;91
0-0-21-077000;61
0-0-21-079000;44
0-0-21-081000;19
0-0-21-083000;40
0-0-21-084000;44
0-0-21-086000;79
0-0-21-088000;96
0-0-21-090000;139
0-0-21-093000;113
0-0-21-095000;104
0-0-21-097000;64
0-0-21-099000;27
0-0-21-101000;17
0-0-21-103000;29
0-0-21-105000;39
0-0-21-107000;65
0-0-21-109000;99
0-0-21-111000;138
0-0-21-113000;104
0-0-21-115000;93
0-0-21-117000;54
0-0-21-119000;44
0-0-21-121000;-1
0-0-21-123000;24
0-0-21-124000;28
0-0-21-127000;75
0-0-21-129000;116
0-0-21-131000;117
0-0-21-133000;123
0-0-21-135000;86
0-0-21-137000;82
0-0-21-139000;28
0-0-21-141000;18
0-0-21-143000;18
0-0-21-145000;54
0-0-21-147000;79
0-0-21-149000;123
0-0-21-151000;113
0-0-21-153000;117
0-0-21-155000;82
0-0-21-157000;78
0-0-21-159000;24
0-0-21-162000;17
0-0-21-164000;24
0-0-21-166000;58
0-0-21-167000;78
0-0-21-169000;82
0-0-21-171000;118
0-0-21-173000;100
0-0-21-175000;91
0-0-21-177000;59
0-0-21-179000;29
0-0-21-181000;13
0-0-21-183000;41
0-0-21-185000;44
0-0-21-187000;62
0-0-21-189000;92
0-0-21-191000;97
0-0-21-193000;99
0-0-21-196000;92
0-0-21-198000;35
0-0-21-200000;16
0-0-21-202000;13
0-0-21-204000;24
0-0-21-206000;42
0-0-21-208000;76
0-0-21-209000;95
0-0-21-221000;55
0-0-21-223000;41
0-0-21-225000;44
0-0-21-227000;81
0-0-21-229000;132
0-0-21-232000;112
0-0-21-234000;105
0-0-21-236000;97
0-0-21-238000;64
0-0-21-240000;54
0-0-21-242000;57
0-0-21-244000;51
0-0-21-246000;64
0-0-21-248000;100
0-0-21-249000;145
0-0-21-251000;119
0-0-21-253000;122
0-0-21-255000;82
0-0-21-257000;40
0-0-21-259000;61
0-0-21-261000;26
0-0-21-263000;28
0-0-21-266000;82
0-0-21-268000;109
0-0-21-270000;122
0-0-21-272000;130
0-0-21-274000;128
0-0-21-276000;109
0-0-21-278000;47
0-0-21-280000;35
0-0-21-282000;21
0-0-21-284000;41
0-0-21-286000;51
0-0-21-288000;99
0-0-21-290000;97
0-0-21-291000;126
0-0-21-293000;115
0-0-21-295000;92
0-0-21-297000;27
0-0-21-300000;43
0-0-21-302000;19
0-0-21-304000;46
0-0-21-306000;92
0-0-21-308000;94
0-0-21-310000;96
0-0-21-312000;77
0-0-21-314000;64
0-0-21-316000;-15
0-0-21-318000;-40
0-0-21-320000;-80
0-0-21-322000;-102
0-0-21-324000;-111
0-0-21-326000;-79
0-0-21-328000;-92
0-0-21-330000;-52
0-0-21-332000;-17
0-0-21-334000;-8
0-0-21-336000;-50
0-0-21-338000;-38
0-0-21-340000;-12
0-0-21-342000;35
0-0-21-344000;80
0-0-21-346000;113
0-0-21-348000;166
0-0-21-350000;211
0-0-21-352000;235
0-0-21-354000;166
0-0-21-356000;151
0-0-21-358000;106
0-0-21-360000;111
0-0-21-362000;80
0-0-21-364000;80
0-0-21-366000;89
0-0-21-369000;113
0-0-21-371000;138
0-0-21-373000;144
0-0-21-374000;127
0-0-21-376000;92
0-0-21-378000;74
0-0-21-380000;89
0-0-21-382000;49
0-0-21-384000;70
0-0-21-386000;99
0-0-21-388000;121
0-0-21-390000;161
0-0-21-392000;149
0-0-21-394000;121
0-0-21-396000;83
0-0-21-398000;70
0-0-21-400000;25
0-0-21-403000;40
0-0-21-405000;46
0-0-21-407000;101
0-0-21-409000;107
0-0-21-411000;139
0-0-21-413000;134
0-0-21-415000;103
0-0-21-416000;65
0-0-21-418000;55
0-0-21-420000;14
0-0-21-430000;122
0-0-21-432000;121
0-0-21-434000;91
0-0-21-436000;75
0-0-21-439000;22
0-0-21-441000;26
0-0-21-443000;26
0-0-21-445000;61
0-0-21-447000;58
0-0-21-449000;89
0-0-21-451000;116
0-0-21-453000;106
0-0-21-455000;80
0-0-21-457000;66
0-0-21-458000;40
0-0-21-460000;17
0-0-21-462000;25
0-0-21-464000;49
0-0-21-466000;63
0-0-21-468000;86
0-0-21-470000;107
0-0-21-473000;118
0-0-21-475000;78
0-0-21-477000;45
0-0-21-479000;30
0-0-21-481000;20
0-0-21-483000;27
0-0-21-485000;26
0-0-21-487000;64
0-0-21-489000;96
0-0-21-491000;129
0-0-21-495000;69
0-0-21-497000;33
0-0-21-499000;7
0-0-21-500000;7
0-0-21-502000;34
0-0-21-504000;11
0-0-21-507000;63
0-0-21-509000;90
0-0-21-511000;112
0-0-21-513000;112
0-0-21-515000;78
0-0-21-517000;44
0-0-21-519000;13
0-0-21-521000;11
0-0-21-523000;24
0-0-21-525000;25
0-0-21-527000;71
0-0-21-529000;111
0-0-21-531000;94
0-0-21-533000;86
0-0-21-535000;69
0-0-21-537000;51
0-0-21-539000;30
0-0-21-541000;20
0-0-21-543000;-2
0-0-21-545000;61
0-0-21-547000;70
0-0-21-549000;107
0-0-21-551000;97
0-0-21-553000;108
0-0-21-555000;74
0-0-21-557000;55
0-0-21-559000;11
0-0-21-561000;39
0-0-21-563000;37
0-0-21-565000;41
0-0-21-567000;86
0-0-21-569000;93
0-0-21-571000;116
0-0-21-573000;120
0-0-21-576000;108
0-0-21-578000;43
0-0-21-580000;35
0-0-21-582000;33
0-0-21-583000;45
0-0-21-585000;75
0-0-21-587000;108
0-0-21-589000;104
0-0-21-591000;129
0-0-21-593000;125
0-0-21-595000;99
0-0-21-597000;40
0-0-21-599000;49
0-0-21-601000;42
0-0-21-603000;51
0-0-21-605000;80
0-0-21-607000;99
0-0-21-609000;121
0-0-21-612000;127
0-0-21-614000;113
0-0-21-616000;98
0-0-21-618000;52
0-0-21-620000;47
0-0-21-622000;52
0-0-21-624000;41
0-0-21-625000;49
0-0-21-627000;125
0-0-21-629000;131
0-0-21-631000;136
0-0-21-643000;30
0-0-21-646000;65
0-0-21-648000;83
0-0-21-650000;115
0-0-21-652000;136
0-0-21-654000;106
0-0-21-656000;71
0-0-21-658000;43
0-0-21-660000;57
0-0-21-662000;32
0-0-21-664000;45
0-0-21-666000;63
0-0-21-667000;90
0-0-21-669000;98
0-0-21-671000;107
0-0-21-673000;116
0-0-21-675000;65
0-0-21-677000;39
0-0-21-680000;33
0-0-21-682000;8
0-0-21-684000;43
0-0-21-686000;59
0-0-21-688000;103
0-0-21-690000;108
0-0-21-692000;124
0-0-21-694000;113
0-0-21-696000;70
0-0-21-698000;59
0-0-21-700000;37
0-0-21-702000;34
0-0-21-704000;32
0-0-21-706000;67
0-0-21-708000;88
0-0-21-709000;108
0-0-21-711000;111
0-0-21-714000;111
0-0-21-716000;53
0-0-21-718000;17
0-0-21-720000;19
0-0-21-722000;42
0-0-21-724000;37
0-0-21-726000;61
0-0-21-728000;64
0-0-21-730000;127
0-0-21-732000;126
0-0-21-734000;105
0-0-21-736000;78
0-0-21-738000;43
0-0-21-740000;17
0-0-21-742000;26
0-0-21-744000;44
0-0-21-746000;54
0-0-21-749000;101
0-0-21-750000;110
0-0-21-752000;129
0-0-21-754000;96
0-0-21-756000;56
0-0-21-758000;45
0-0-21-760000;26
0-0-21-762000;19
0-0-21-764000;50
0-0-21-766000;41
0-0-21-768000;103
0-0-21-770000;104
0-0-21-772000;82
0-0-21-774000;74
0-0-21-776000;59
0-0-21-778000;33
0-0-21-780000;30
0-0-21-783000;15
0-0-21-785000;23
0-0-21-787000;51
0-0-21-789000;95
0-0-21-791000;123
0-0-21-792000;97
0-0-21-794000;83
0-0-21-796000;50
0-0-21-798000;34
0-0-21-800000;21
0-0-21-802000;23
0-0-21-804000;47
0-0-21-806000;71
0-0-21-808000;101
0-0-21-810000;150
0-0-21-812000;117
0-0-21-814000;87
0-0-21-816000;63
0-0-21-819000;39
0-0-21-821000;16
0-0-21-823000;56
0-0-21-825000;74
0-0-21-827000;77
0-0-21-829000;140
0-0-21-831000;124
0-0-21-833000;123
0-0-21-834000;115
0-0-21-836000;94
0-0-21-838000;38
0-0-21-840000;32
0-0-21-842000;39
0-0-21-855000;104
0-0-21-857000;87
0-0-21-859000;29
0-0-21-861000;34
0-0-21-863000;29
0-0-21-865000;69
0-0-21-867000;67
0-0-21-869000;117
0-0-21-871000;119
0-0-21-873000;128
0-0-21-874000;120
0-0-21-876000;72
0-0-21-878000;34
0-0-21-880000;11
0-0-21-882000;43
0-0-21-884000;26
0-0-21-887000;67
0-0-21-889000;99
0-0-21-891000;114
0-0-21-893000;108
0-0-21-895000;120
0-0-21-897000;63
0-0-21-899000;52
0-0-21-901000;32
0-0-21-903000;46
0-0-21-905000;9
0-0-21-907000;47
0-0-21-909000;54
0-0-21-911000;52
0-0-21-913000;28
0-0-21-915000;-35
0-0-21-916000;-64
0-0-21-921000;-116
0-0-21-923000;-118
0-0-21-925000;-106
0-0-21-927000;-77
0-0-21-929000;-5
0-0-21-931000;16
0-0-21-933000;30
0-0-21-935000;33
0-0-21-937000;30
0-0-21-939000;52
0-0-21-941000;94
0-0-21-943000;90
0-0-21-945000;127
0-0-21-947000;153
0-0-21-949000;205
0-0-21-951000;183
0-0-21-953000;179
0-0-21-956000;141
0-0-21-958000;86
0-0-21-959000;90
0-0-21-961000;48
0-0-21-963000;50
0-0-21-965000;73
0-0-21-967000;116
0-0-21-969000;137
0-0-21-971000;141
0-0-21-973000;134
0-0-21-975000;126
0-0-21-977000;95
0-0-21-979000;55
0-0-21-981000;49
0-0-21-983000;50
0-0-21-985000;74
0-0-21-987000;114
0-0-21-990000;120
0-0-21-992000;139
0-0-21-994000;132
0-0-21-996000;109
0-0-21-998000;52
0-0-21-999000;42
0-0-22-001000;32
0-0-22-003000;49
0-0-22-005000;77
0-0-22-007000;97
0-0-22-009000;126
0-0-22-011000;132
0-0-22-013000;129
0-0-22-015000;82
0-0-22-017000;65
0-0-22-019000;40
0-0-22-021000;20
0-0-22-023000;41
0-0-22-026000;79
0-0-22-028000;71
0-0-22-030000;110
0-0-22-032000;109
0-0-22-034000;113
0-0-22-036000;80
0-0-22-038000;54
0-0-22-040000;21
0-0-22-041000;39
0-0-22-043000;32
0-0-22-045000;48
0-0-22-047000;106
0-0-22-049000;106
0-0-22-051000;128
0-0-22-053000;99
0-0-22-055000;63
0-0-22-068000;70
0-0-22-070000;108
0-0-22-072000;106
0-0-22-074000;80
0-0-22-076000;67
0-0-22-078000;31
0-0-22-080000;28
0-0-22-082000;19
0-0-22-083000;22
0-0-22-085000;64
0-0-22-087000;66
0-0-22-089000;117
0-0-22-091000;94
0-0-22-094000;63
0-0-22-096000;53
0-0-22-098000;42
0-0-22-100000;21
0-0-22-102000;20
0-0-22-104000;19
0-0-22-106000;50
0-0-22-108000;80
0-0-22-110000;96
0-0-22-112000;86
0-0-22-114000;77
0-0-22-116000;48
0-0-22-118000;41
0-0-22-120000;-9
0-0-22-122000;8
0-0-22-124000;17
0-0-22-125000;67
0-0-22-128000;78
0-0-22-130000;115
0-0-22-132000;107
0-0-22-134000;92
0-0-22-136000;70
0-0-22-138000;25
0-0-22-140000;14
0-0-22-142000;20
0-0-22-144000;46
0-0-22-146000;53
0-0-22-148000;68
0-0-22-150000;105
0-0-22-152000;114
0-0-22-154000;93
0-0-22-156000;75
0-0-22-158000;16
0-0-22-160000;20
0-0-22-163000;18
0-0-22-165000;63
0-0-22-166000;49
0-0-22-168000;104
0-0-22-170000;115
0-0-22-172000;121
0-0-22-174000;107
0-0-22-176000;76
0-0-22-178000;49
0-0-22-180000;46
0-0-22-182000;29
0-0-22-184000;50
0-0-22-186000;79
0-0-22-188000;109
0-0-22-190000;141
0-0-22-192000;139
0-0-22-194000;117
0-0-22-197000;75
0-0-22-199000;46
0-0-22-201000;34
0-0-22-203000;63
0-0-22-205000;47
0-0-22-207000;77
0-0-22-208000;114
0-0-22-210000;151
0-0-22-212000;120
0-0-22-214000;102
0-0-22-216000;75
0-0-22-218000;52
0-0-22-220000;37
0-0-22-222000;35
0-0-22-224000;52
0-0-22-226000;74
0-0-22-228000;119
0-0-22-230000;134
0-0-22-233000;112
0-0-22-235000;97
0-0-22-237000;60
0-0-22-239000;42
0-0-22-241000;25
0-0-22-243000;43
0-0-22-245000;36
0-0-22-247000;78
0-0-22-249000;115
0-0-22-250000;99
0-0-22-252000;122
0-0-22-254000;92
0-0-22-256000;61
0-0-22-258000;23
0-0-22-260000;21
0-0-22-262000;33
0-0-22-264000;26
0-0-22-267000;88
0-0-22-277000;56
0-0-22-279000;29
0-0-22-281000;31
0-0-22-283000;37
0-0-22-285000;45
0-0-22-287000;73
0-0-22-289000;87
0-0-22-291000;116
0-0-22-292000;127
0-0-22-294000;103
0-0-22-296000;46
0-0-22-298000;26
0-0-22-301000;22
0-0-22-303000;42
0-0-22-305000;56
0-0-22-307000;87
0-0-22-309000;105
0-0-22-311000;115
0-0-22-313000;128
0-0-22-315000;77
0-0-22-317000;35
0-0-22-319000;28
0-0-22-321000;35
0-0-22-323000;14
0-0-22-325000;39
0-0-22-327000;67
0-0-22-329000;96
0-0-22-331000;116
0-0-22-333000;110
0-0-22-335000;62
0-0-22-337000;44
0-0-22-339000;18
0-0-22-341000;11
0-0-22-345000;40
0-0-22-347000;74
0-0-22-349000;113
0-0-22-351000;102
0-0-22-353000;91
0-0-22-355000;72
0-0-22-357000;54
0-0-22-359000;39
0-0-22-361000;9
0-0-22-363000;20
0-0-22-365000;45
0-0-22-367000;88
0-0-22-370000;101
0-0-22-372000;122
0-0-22-374000;90
0-0-22-375000;63
0-0-22-377000;35
0-0-22-379000;31
0-0-22-381000;4
0-0-22-383000;22
0-0-22-385000;35
0-0-22-387000;101
0-0-22-389000;89
0-0-22-391000;121
0-0-22-393000;114
0-0-22-395000;79
0-0-22-397000;66
0-0-22-399000;29
0-0-22-401000;37
0-0-22-403000;43
0-0-22-406000;79
0-0-22-408000;82
0-0-22-410000;132
0-0-22-412000;142
0-0-22-414000;130
0-0-22-416000;78
0-0-22-417000;59
0-0-22-419000;35
0-0-22-421000;41
0-0-22-423000;62
0-0-22-425000;72
0-0-22-427000;95
0-0-22-429000;121
0-0-22-431000;124
0-0-22-433000;127
0-0-22-435000;67
0-0-22-437000;60
0-0-22-440000;32
0-0-22-442000;44
0-0-22-444000;60
0-0-22-446000;77
0-0-22-448000;92
0-0-22-450000;129
0-0-22-452000;143
0-0-22-454000;109
0-0-22-456000;68
0-0-22-458000;40
0-0-22-459000;35
0-0-22-461000;36
0-0-22-463000;56
0-0-22-465000;68
0-0-22-467000;83
0-0-22-469000;123
0-0-22-471000;130
0-0-22-474000;90
0-0-22-476000;61
0-0-22-478000;47
0-0-22-490000;133
0-0-22-492000;122
0-0-22-494000;81
0-0-22-496000;18
0-0-22-498000;5
0-0-22-499000;-56
0-0-22-501000;-69
0-0-22-503000;-90
0-0-22-505000;-96
0-0-22-508000;-54
0-0-22-510000;-39
0-0-22-512000;-44
0-0-22-514000;-68
0-0-22-516000;-70
0-0-22-518000;-71
0-0-22-520000;-82
0-0-22-522000;-49
0-0-22-524000;18
0-0-22-526000;85
0-0-22-528000;167
0-0-22-530000;197
0-0-22-532000;219
0-0-22-534000;188
0-0-22-536000;183
0-0-22-538000;122
0-0-22-540000;102
0-0-22-542000;82
0-0-22-544000;111
0-0-22-546000;108
0-0-22-548000;122
0-0-22-550000;160
0-0-22-552000;133
0-0-22-554000;128
0-0-22-556000;119
0-0-22-558000;54
0-0-22-560000;48
0-0-22-562000;62
0-0-22-564000;91
0-0-22-566000;75
0-0-22-568000;118
0-0-22-570000;136
0-0-22-572000;146
0-0-22-574000;144
0-0-22-577000;63
0-0-22-579000;66
0-0-22-581000;32
0-0-22-583000;64
0-0-22-584000;60
0-0-22-586000;82
0-0-22-588000;120
0-0-22-590000;134
0-0-22-592000;119
0-0-22-594000;124
0-0-22-596000;63
0-0-22-598000;43
0-0-22-600000;47
0-0-22-602000;51
0-0-22-604000;38
0-0-22-606000;73
0-0-22-608000;101
0-0-22-610000;120
0-0-22-613000;114
0-0-22-615000;84
0-0-22-617000;76
0-0-22-619000;49
0-0-22-621000;49
0-0-22-623000;27
0-0-22-624000;56
0-0-22-626000;64
0-0-22-628000;121
0-0-22-630000;113
0-0-22-632000;109
0-0-22-634000;82
0-0-22-636000;46
0-0-22-638000;32
0-0-22-640000;43
0-0-22-642000;19
0-0-22-644000;52
0-0-22-647000;69
0-0-22-649000;124
0-0-22-651000;126
0-0-22-653000;102
0-0-22-655000;93
0-0-22-657000;52
0-0-22-659000;32
0-0-22-661000;10
0-0-22-663000;9
0-0-22-665000;39
0-0-22-666000;91
0-0-22-668000;75
0-0-22-670000;100
0-0-22-672000;101
0-0-22-674000;89
0-0-22-676000;54
0-0-22-678000;12
0-0-22-681000;-7
0-0-22-683000;27
0-0-22-685000;37
0-0-22-687000;83
0-0-22-689000;82
0-0-22-701000;10
0-0-22-703000;6
0-0-22-705000;46
0-0-22-707000;58
0-0-22-708000;90
0-0-22-710000;101
0-0-22-712000;109
0-0-22-715000;69
0-0-22-717000;28
0-0-22-719000;18
0-0-22-721000;21
0-0-22-723000;12
0-0-22-725000;49
0-0-22-727000;62
0-0-22-729000;102
0-0-22-731000;107
0-0-22-733000;123
0-0-22-735000;54
0-0-22-737000;31
0-0-22-739000;22
0-0-22-741000;31
0-0-22-743000;38
0-0-22-745000;42
0-0-22-747000;78
0-0-22-749000;103
0-0-22-751000;106
0-0-22-753000;98
0-0-22-755000;71
0-0-22-757000;48
0-0-22-759000;51
0-0-22-761000;18
0-0-22-763000;54
0-0-22-765000;73
0-0-22-767000;93
0-0-22-771000;152
0-0-22-773000;106
0-0-22-775000;94
0-0-22-777000;63
0-0-22-779000;43
0-0-22-781000;26
0-0-22-784000;44
0-0-22-786000;75
0-0-22-788000;94
0-0-22-790000;136
0-0-22-791000;122
0-0-22-793000;120
0-0-22-795000;77
0-0-22-797000;71
0-0-22-799000;46
0-0-22-801000;33
0-0-22-803000;55
0-0-22-805000;92
0-0-22-807000;93
0-0-22-809000;120
0-0-22-811000;128
0-0-22-813000;111
0-0-22-815000;86
0-0-22-817000;80
0-0-22-820000;15
0-0-22-822000;20
0-0-22-824000;41
0-0-22-826000;77
0-0-22-828000;85
0-0-22-830000;124
0-0-22-832000;136
0-0-22-833000;116
0-0-22-835000;92
0-0-22-837000;44
0-0-22-839000;25
0-0-22-841000;37
0-0-22-843000;50
0-0-22-845000;57
0-0-22-847000;92
0-0-22-849000;115
0-0-22-851000;119
0-0-22-854000;95
0-0-22-856000;49
0-0-22-858000;33
0-0-22-860000;32
0-0-22-862000;36
0-0-22-864000;59
0-0-22-866000;60
0-0-22-868000;86
0-0-22-870000;119
0-0-22-872000;131
0-0-22-874000;104
0-0-22-875000;58
0-0-22-877000;35
0-0-22-879000;20
0-0-22-881000;32
0-0-22-883000;31
0-0-22-885000;57
0-0-22-888000;81
0-0-22-890000;131
0-0-22-892000;107
0-0-22-894000;101
0-0-22-896000;79
0-0-22-898000;31
0-0-22-900000;40
0-0-22-902000;50
0-0-22-916000;60
0-0-22-917000;43
0-0-22-919000;12
0-0-22-922000;8
0-0-22-924000;45
0-0-22-926000;61
0-0-22-928000;112
0-0-22-930000;106
0-0-22-932000;109
0-0-22-934000;90
0-0-22-936000;79
0-0-22-938000;37
0-0-22-940000;26
0-0-22-942000;13
0-0-22-944000;35
0-0-22-946000;66
0-0-22-948000;96
0-0-22-950000;96
0-0-22-952000;107
0-0-22-954000;83
0-0-22-957000;28
0-0-22-958000;15
0-0-22-960000;12
0-0-22-962000;9
0-0-22-964000;33
0-0-22-966000;75
0-0-22-968000;90
0-0-22-970000;107
0-0-22-972000;109
0-0-22-974000;106
0-0-22-976000;65
0-0-22-978000;32
0-0-22-980000;26
0-0-22-982000;58
0-0-22-984000;51
0-0-22-986000;82
0-0-22-988000;103
0-0-22-990000;121
0-0-22-993000;126
0-0-22-995000;115
0-0-22-997000;66
0-0-22-999000;53
0-0-23-000000;50
0-0-23-002000;66
0-0-23-004000;49
0-0-23-006000;74
0-0-23-008000;115
0-0-23-010000;134
0-0-23-012000;135
0-0-23-014000;99
0-0-23-016000;67
0-0-23-018000;55
0-0-23-020000;45
0-0-23-022000;30
0-0-23-024000;56
0-0-23-027000;75
0-0-23-029000;111
0-0-23-031000;129
0-0-23-033000;127
0-0-23-035000;85
0-0-23-037000;62
0-0-23-039000;41
0-0-23-041000;34
0-0-23-042000;24
0-0-23-044000;51
0-0-23-046000;79
0-0-23-048000;92
0-0-23-050000;129
0-0-23-052000;101
0-0-23-054000;99
0-0-23-056000;72
0-0-23-058000;60
0-0-23-061000;32
0-0-23-063000;37
0-0-23-065000;51
0-0-23-067000;106
0-0-23-069000;107
0-0-23-071000;130
0-0-23-073000;117
0-0-23-075000;97
0-0-23-077000;42
0-0-23-079000;19
0-0-23-081000;-25
0-0-23-083000;-25
0-0-23-084000;-31
0-0-23-086000;4
0-0-23-088000;-19
0-0-23-090000;-10
0-0-23-092000;-40
0-0-23-095000;-96
0-0-23-097000;-115
0-0-23-099000;-134
0-0-23-101000;-120
0-0-23-103000;-99
0-0-23-105000;-41
0-0-23-107000;-12
0-0-23-109000;63
0-0-23-111000;98
0-0-23-113000;166
0-0-23-115000;163
0-0-23-126000;133
0-0-23-129000;172
0-0-23-131000;179
0-0-23-133000;156
0-0-23-135000;98
0-0-23-137000;90
0-0-23-139000;62
0-0-23-141000;43
0-0-23-143000;70
0-0-23-145000;72
0-0-23-147000;112
0-0-23-149000;140
